1.370906829833984375e-06,1.192092895507812500e-07,1.788139343261718750e-07,4.768371582031250000e-07,8.642673492431640625e-07,0.000000000000000000e+00
2.889731526374816895e-02,2.006709575653076172e-03,3.177862763404846191e-01,2.828240394592285156e-05,4.834342002868652344e-02,3.205239772796630859e-04
3.112852573394775391e-04,2.935528755187988281e-05,4.172325134277343750e-06,1.978874206542968750e-05,9.349018335342407227e-03,2.491474151611328125e-05
0.000000000000000000e+00,0.000000000000000000e+00,0.000000000000000000e+00,0.000000000000000000e+00,0.000000000000000000e+00,0.000000000000000000e+00
5.306005477905273438e-04,3.576278686523437500e-06,3.278255462646484375e-07,1.430511474609375000e-06,2.242624759674072266e-04,4.678964614868164062e-06
1.102685928344726562e-06,6.854534149169921875e-07,1.490116119384765625e-07,1.996755599975585938e-06,7.450580596923828125e-06,2.354383468627929688e-06
8.940696716308593750e-08,5.960464477539062500e-08,0.000000000000000000e+00,1.192092895507812500e-07,3.337860107421875000e-06,2.086162567138671875e-07
8.910894393920898438e-06,1.102685928344726562e-06,1.490116119384765625e-07,1.221895217895507812e-06,1.662969589233398438e-05,1.192092895507812500e-07
8.511543273925781250e-05,4.395842552185058594e-05,3.856420516967773438e-05,3.212094306945800781e-04,5.578994750976562500e-05,1.102685928344726562e-06
1.013278961181640625e-06,1.192092895507812500e-07,0.000000000000000000e+00,2.682209014892578125e-07,5.483627319335937500e-06,5.751848220825195312e-06
2.157688140869140625e-04,1.126229763031005859e-04,2.726912498474121094e-05,4.768371582031250000e-07,2.461671829223632812e-05,5.364418029785156250e-07
8.434057235717773438e-06,1.788139343261718750e-07,0.000000000000000000e+00,4.172325134277343750e-07,3.248453140258789062e-06,0.000000000000000000e+00
1.903975307941436768e-01,8.612871170043945312e-06,1.189112663269042969e-05,3.427267074584960938e-06,8.568167686462402344e-05,5.364418029785156250e-07
2.592802047729492188e-06,1.192092895507812500e-07,0.000000000000000000e+00,1.430511474609375000e-06,1.871585845947265625e-05,3.278255462646484375e-07
6.824731826782226562e-06,1.698732376098632812e-06,1.043081283569335938e-06,9.238719940185546875e-07,4.366040229797363281e-05,6.258487701416015625e-06
1.961252987384796143e-01,1.495093107223510742e-03,6.919533610343933105e-01,1.929402351379394531e-03,1.697487831115722656e-01,4.825592041015625000e-04
1.229941844940185547e-04,1.433491706848144531e-04,7.712841033935546875e-05,7.982492446899414062e-03,1.969933509826660156e-04,4.976987838745117188e-06
1.361966133117675781e-05,1.788139343261718750e-07,1.490116119384765625e-07,3.874301910400390625e-07,5.155801773071289062e-06,8.940696716308593750e-08
5.166105031967163086e-01,1.010838150978088379e-02,7.162648439407348633e-01,1.937061548233032227e-02,1.055046916007995605e-02,5.835294723510742188e-05
4.166364669799804688e-05,8.046627044677734375e-06,6.467103958129882812e-06,8.136034011840820312e-06,5.628466606140136719e-04,4.649162292480468750e-06
7.450580596923828125e-07,8.940696716308593750e-08,8.940696716308593750e-08,1.788139343261718750e-07,2.115964889526367188e-06,5.662441253662109375e-07
6.079673767089843750e-06,1.192092895507812500e-07,0.000000000000000000e+00,2.682209014892578125e-07,2.229213714599609375e-05,2.354383468627929688e-06
5.750060081481933594e-04,2.510190010070800781e-03,1.606345176696777344e-05,6.607803702354431152e-01,5.185604095458984375e-04,1.788139343261718750e-07
1.380532979965209961e-03,6.708502769470214844e-05,9.208917617797851562e-06,2.001821994781494141e-04,4.574888944625854492e-02,3.757332563400268555e-01
1.281499862670898438e-05,3.546476364135742188e-06,6.258487701416015625e-07,2.086162567138671875e-07,2.160668373107910156e-05,1.192092895507812500e-07
8.344650268554687500e-06,7.748603820800781250e-07,1.788139343261718750e-07,1.549720764160156250e-06,5.608797073364257812e-05,1.192092895507812500e-07
7.778406143188476562e-06,3.188848495483398438e-06,3.427267074584960938e-06,2.413988113403320312e-06,1.785159111022949219e-05,2.771615982055664062e-06
1.112431287765502930e-03,2.413988113403320312e-05,1.403689384460449219e-05,9.864568710327148438e-06,4.368135333061218262e-02,1.150369644165039062e-05
5.193144083023071289e-03,1.499652862548828125e-04,8.407921195030212402e-01,2.890825271606445312e-06,6.499052047729492188e-03,3.933906555175781250e-05
2.086162567138671875e-07,0.000000000000000000e+00,0.000000000000000000e+00,0.000000000000000000e+00,8.046627044677734375e-07,0.000000000000000000e+00
2.503395080566406250e-06,8.940696716308593750e-08,0.000000000000000000e+00,6.854534149169921875e-07,8.106231689453125000e-06,2.175569534301757812e-06
8.770823478698730469e-05,7.221102714538574219e-05,1.722574234008789062e-05,1.155078411102294922e-03,8.603930473327636719e-05,3.196895122528076172e-04
1.576528847217559814e-01,5.167722702026367188e-05,1.357793807983398438e-04,2.008974552154541016e-04,6.434920430183410645e-02,1.355409622192382812e-04
7.334351539611816406e-05,1.123547554016113281e-05,7.897615432739257812e-06,1.112222671508789062e-04,1.178443431854248047e-03,6.130696535110473633e-01
3.308057785034179688e-06,2.086162567138671875e-06,1.341104507446289062e-06,2.327561378479003906e-05,7.748603820800781250e-07,0.000000000000000000e+00
9.316205978393554688e-05,3.910958766937255859e-04,2.020597457885742188e-05,3.092703223228454590e-02,5.424022674560546875e-05,3.248453140258789062e-06
5.150735378265380859e-04,2.100765705108642578e-04,2.649426460266113281e-05,6.794929504394531250e-06,4.172325134277343750e-06,0.000000000000000000e+00
2.413988113403320312e-06,5.960464477539062500e-08,0.000000000000000000e+00,9.238719940185546875e-07,2.688169479370117188e-05,1.788139343261718750e-07
1.154839992523193359e-03,2.884864807128906250e-05,1.230835914611816406e-05,5.662441253662109375e-06,9.730458259582519531e-05,9.924173355102539062e-06
1.668930053710937500e-06,2.086162567138671875e-07,2.682209014892578125e-07,3.874301910400390625e-07,2.712011337280273438e-06,5.960464477539062500e-08
2.201378345489501953e-03,1.194655895233154297e-03,3.963708877563476562e-06,6.092559099197387695e-01,5.894124507904052734e-03,1.081824302673339844e-05
1.248562335968017578e-02,1.088798046112060547e-03,9.033083915710449219e-05,2.012401819229125977e-03,1.906722784042358398e-03,4.759430885314941406e-05
7.948279380798339844e-05,6.198883056640625000e-06,1.013278961181640625e-06,6.616115570068359375e-05,1.990944147109985352e-03,1.017663478851318359e-01
7.843971252441406250e-05,2.533197402954101562e-06,2.801418304443359375e-06,1.236796379089355469e-05,9.953975677490234375e-06,5.960464477539062500e-08
1.581907272338867188e-04,1.311302185058593750e-06,7.748603820800781250e-07,1.183152198791503906e-05,3.976225852966308594e-04,4.542559385299682617e-03
2.316236495971679688e-04,3.546476364135742188e-06,2.682209014892578125e-07,1.013278961181640625e-06,1.214444637298583984e-04,2.887845039367675781e-05
1.637041568756103516e-04,9.736418724060058594e-05,3.555417060852050781e-05,5.212426185607910156e-05,1.513659954071044922e-04,1.546740531921386719e-05
1.043081283569335938e-06,1.192092895507812500e-07,8.940696716308593750e-08,1.490116119384765625e-07,1.174211502075195312e-05,0.000000000000000000e+00
5.960464477539062500e-08,0.000000000000000000e+00,0.000000000000000000e+00,0.000000000000000000e+00,0.000000000000000000e+00,0.000000000000000000e+00
0.000000000000000000e+00,0.000000000000000000e+00,0.000000000000000000e+00,0.000000000000000000e+00,8.940696716308593750e-08,0.000000000000000000e+00
5.608797073364257812e-05,1.192092895507812500e-07,2.980232238769531250e-08,1.013278961181640625e-06,2.437829971313476562e-05,1.788139343261718750e-07
1.788139343261718750e-07,2.980232238769531250e-08,5.960464477539062500e-08,0.000000000000000000e+00,3.874301910400390625e-07,2.086162567138671875e-07
6.258487701416015625e-07,8.940696716308593750e-08,8.940696716308593750e-08,1.192092895507812500e-07,3.218650817871093750e-06,2.384185791015625000e-07
7.690638303756713867e-03,4.768371582031250000e-07,3.576278686523437500e-07,3.546476364135742188e-06,2.178549766540527344e-05,2.682209014892578125e-07
5.662441253662109375e-07,1.198053359985351562e-05,6.258487701416015625e-07,2.980232238769531250e-07,7.897615432739257812e-06,6.228685379028320312e-06
1.579523086547851562e-06,5.066394805908203125e-07,6.556510925292968750e-07,5.960464477539062500e-08,1.788139343261718750e-06,8.940696716308593750e-08
7.480382919311523438e-06,2.086162567138671875e-07,1.490116119384765625e-07,2.806484699249267578e-04,2.831220626831054688e-06,0.000000000000000000e+00
5.729037523269653320e-02,7.800757884979248047e-04,3.469616174697875977e-03,1.718580722808837891e-03,2.810359001159667969e-04,1.055002212524414062e-05
3.729194402694702148e-03,4.805237054824829102e-03,5.214941501617431641e-01,4.127472639083862305e-03,1.790821552276611328e-04,4.857778549194335938e-05
2.058097720146179199e-02,6.446242332458496094e-05,2.950429916381835938e-05,1.731514930725097656e-05,3.712773323059082031e-04,3.963708877563476562e-06
9.655952453613281250e-06,1.072883605957031250e-06,4.172325134277343750e-07,5.066394805908203125e-07,1.186132431030273438e-05,1.111626625061035156e-05
1.833081245422363281e-03,4.621744155883789062e-04,1.639127731323242188e-06,5.599856376647949219e-05,1.496374607086181641e-04,6.854534149169921875e-07
4.262030124664306641e-04,1.192092895507812500e-05,4.053115844726562500e-06,5.543231964111328125e-06,2.018839120864868164e-03,8.344650268554687500e-07
3.975629806518554688e-05,1.639127731323242188e-06,1.698732376098632812e-06,1.162290573120117188e-06,1.004338264465332031e-05,2.980232238769531250e-08
1.552477478981018066e-02,7.629394531250000000e-06,2.115964889526367188e-06,4.035234451293945312e-05,4.884770512580871582e-02,3.128945827484130859e-04
5.215406417846679688e-06,3.576278686523437500e-07,0.000000000000000000e+00,7.152557373046875000e-07,5.334615707397460938e-06,7.051229476928710938e-05
1.880526542663574219e-05,8.642673492431640625e-07,9.238719940185546875e-07,2.384185791015625000e-07,1.510977745056152344e-05,0.000000000000000000e+00
4.249103665351867676e-01,7.984133958816528320e-01,6.586313247680664062e-03,1.365542411804199219e-04,4.667222499847412109e-03,5.304813385009765625e-06
1.877773404121398926e-01,1.838144659996032715e-02,2.908706665039062500e-05,7.145736217498779297e-01,8.582174777984619141e-04,0.000000000000000000e+00
6.547570228576660156e-05,5.602836608886718750e-06,2.384185791015625000e-07,8.517503738403320312e-05,8.935630321502685547e-04,6.110674142837524414e-01
0.000000000000000000e+00,0.000000000000000000e+00,0.000000000000000000e+00,0.000000000000000000e+00,2.384185791015625000e-07,0.000000000000000000e+00
9.655952453613281250e-06,1.907348632812500000e-06,2.086162567138671875e-07,2.071261405944824219e-05,1.147389411926269531e-05,3.576278686523437500e-07
7.152557373046875000e-07,8.940696716308593750e-08,5.960464477539062500e-08,1.490116119384765625e-07,2.837181091308593750e-05,0.000000000000000000e+00
3.497600555419921875e-04,4.866421222686767578e-04,5.888938903808593750e-05,3.232330083847045898e-03,3.227055072784423828e-03,2.012574672698974609e-02
5.596876144409179688e-05,6.139278411865234375e-06,3.278255462646484375e-07,1.500844955444335938e-04,8.675754070281982422e-04,4.045894742012023926e-02
8.947759866714477539e-03,7.271260023117065430e-03,2.495050430297851562e-04,5.108144879341125488e-01,8.234858512878417969e-03,2.306699752807617188e-05
1.579523086547851562e-05,1.698732376098632812e-06,2.384185791015625000e-06,6.556510925292968750e-07,8.940696716308593750e-06,2.086162567138671875e-07
6.481751799583435059e-01,4.270374774932861328e-04,3.240704536437988281e-04,4.084706306457519531e-04,3.028631210327148438e-03,8.761882781982421875e-06
1.210868358612060547e-04,4.768371582031250000e-07,1.788139343261718750e-06,3.874301910400390625e-07,3.486871719360351562e-06,1.788139343261718750e-07
7.182359695434570312e-06,9.119510650634765625e-06,1.698732376098632812e-06,4.059314727783203125e-03,7.182359695434570312e-06,2.086162567138671875e-07
3.178119659423828125e-04,1.773238182067871094e-05,3.039836883544921875e-06,1.162499189376831055e-03,2.664327621459960938e-05,4.470348358154296875e-07
1.856684684753417969e-05,5.066394805908203125e-07,3.188848495483398438e-06,5.960464477539062500e-07,7.629394531250000000e-06,8.940696716308593750e-08
3.129243850708007812e-06,6.258487701416015625e-07,4.768371582031250000e-07,1.130998134613037109e-04,4.827976226806640625e-06,8.940696716308593750e-08
5.364418029785156250e-07,7.748603820800781250e-07,1.102685928344726562e-06,2.682209014892578125e-07,1.400709152221679688e-06,2.980232238769531250e-08
1.543760299682617188e-04,1.221895217895507812e-06,4.172325134277343750e-07,3.582239151000976562e-05,2.813339233398437500e-05,1.192092895507812500e-07
2.653074264526367188e-01,1.721382141113281250e-04,2.275705337524414062e-04,4.670023918151855469e-05,1.124083995819091797e-03,1.505017280578613281e-05
1.250803470611572266e-04,6.741285324096679688e-05,8.895099163055419922e-04,8.702278137207031250e-06,6.332099437713623047e-04,2.339482307434082031e-05
3.904104232788085938e-06,9.536743164062500000e-07,2.980232238769531250e-07,5.662441253662109375e-07,9.593367576599121094e-05,4.529953002929687500e-06
1.171231269836425781e-05,1.043081283569335938e-06,5.662441253662109375e-07,1.192092895507812500e-06,5.841255187988281250e-05,1.013278961181640625e-06
6.079673767089843750e-06,1.109540462493896484e-04,1.040101051330566406e-05,0.000000000000000000e+00,2.697110176086425781e-05,8.940696716308593750e-08
3.099441528320312500e-06,6.854534149169921875e-07,1.788139343261718750e-07,1.192092895507812500e-06,2.187490463256835938e-05,4.589557647705078125e-06
3.713477849960327148e-01,1.080840826034545898e-03,6.043626666069030762e-01,6.038844585418701172e-04,1.845613121986389160e-02,3.004968166351318359e-04
2.551078796386718750e-05,1.788139343261718750e-07,8.940696716308593750e-08,1.788139343261718750e-07,1.889467239379882812e-05,1.490116119384765625e-07
2.011656761169433594e-05,9.387731552124023438e-06,1.758337020874023438e-06,1.490116119384765625e-06,1.987814903259277344e-05,8.476972579956054688e-04
1.531839370727539062e-05,2.533197402954101562e-06,2.980232238769531250e-07,9.566545486450195312e-06,1.126825809478759766e-04,1.367926597595214844e-04
4.455447196960449219e-05,9.008646011352539062e-04,1.168251037597656250e-05,1.880526542663574219e-05,3.024935722351074219e-05,2.202391624450683594e-05
3.518459796905517578e-01,1.794099807739257812e-05,6.407499313354492188e-06,1.782178878784179688e-05,1.818931102752685547e-02,1.059770584106445312e-04
3.755092620849609375e-06,6.258487701416015625e-07,8.940696716308593750e-08,5.424022674560546875e-06,4.297494888305664062e-05,0.000000000000000000e+00
1.083910465240478516e-04,1.408189535140991211e-03,6.556510925292968750e-06,5.569744110107421875e-01,1.417696475982666016e-04,7.152557373046875000e-07
1.944154500961303711e-03,1.730024814605712891e-04,8.622061014175415039e-01,6.377696990966796875e-05,7.285624742507934570e-03,8.910894393920898438e-05
2.118945121765136719e-05,7.152557373046875000e-07,0.000000000000000000e+00,3.874301910400390625e-07,2.028942108154296875e-04,1.788139343261718750e-07
2.145767211914062500e-06,5.066394805908203125e-07,8.940696716308593750e-08,1.102685928344726562e-06,3.215670585632324219e-05,1.788139343261718750e-07
5.313754081726074219e-05,4.470348358154296875e-06,2.086162567138671875e-06,1.412630081176757812e-05,4.857778549194335938e-06,2.086162567138671875e-07
1.013278961181640625e-06,7.152557373046875000e-07,2.980232238769531250e-08,9.536743164062500000e-07,1.358985900878906250e-05,1.490116119384765625e-07
2.768009901046752930e-03,6.410777568817138672e-04,7.066432237625122070e-01,1.139044761657714844e-04,3.467381000518798828e-03,1.502335071563720703e-04
5.960464477539062500e-08,1.192092895507812500e-07,0.000000000000000000e+00,2.980232238769531250e-08,9.536743164062500000e-07,0.000000000000000000e+00
2.543926239013671875e-04,7.941557168960571289e-01,1.364171504974365234e-03,2.104043960571289062e-05,6.594955921173095703e-04,8.642673492431640625e-07
6.258487701416015625e-07,1.490116119384765625e-07,5.960464477539062500e-08,2.562999725341796875e-06,1.072883605957031250e-06,2.980232238769531250e-08
5.692243576049804688e-06,2.980232238769531250e-08,0.000000000000000000e+00,8.642673492431640625e-07,2.294182777404785156e-04,7.839668989181518555e-01
5.662441253662109375e-07,5.364418029785156250e-07,8.642673492431640625e-07,0.000000000000000000e+00,4.827976226806640625e-06,1.192092895507812500e-07
1.163295805454254150e-01,8.759123086929321289e-02,9.601444005966186523e-03,9.435415267944335938e-04,1.652866601943969727e-03,2.402067184448242188e-05
2.300739288330078125e-04,6.586313247680664062e-06,5.513429641723632812e-06,6.258487701416015625e-07,1.268148422241210938e-03,4.470348358154296875e-07
7.873773574829101562e-05,4.192644357681274414e-02,7.498264312744140625e-05,1.190304756164550781e-04,1.038879156112670898e-02,1.877546310424804688e-06
1.433491706848144531e-04,2.324581146240234375e-06,5.900859832763671875e-06,4.470348358154296875e-07,3.942847251892089844e-05,1.549720764160156250e-06
9.536743164062500000e-06,2.682209014892578125e-07,2.980232238769531250e-08,3.278255462646484375e-07,1.102685928344726562e-05,5.960464477539062500e-08
1.981854438781738281e-05,4.053115844726562500e-06,1.877546310424804688e-06,2.997815608978271484e-04,9.715557098388671875e-06,2.384185791015625000e-07
6.891489028930664062e-03,1.204013824462890625e-04,4.775822162628173828e-04,2.601742744445800781e-05,2.735197544097900391e-03,7.212162017822265625e-06
3.576278686523437500e-07,1.490116119384765625e-07,8.940696716308593750e-08,5.960464477539062500e-08,2.384185791015625000e-07,0.000000000000000000e+00
8.642673492431640625e-07,1.490116119384765625e-07,5.960464477539062500e-08,3.278255462646484375e-07,1.847743988037109375e-06,0.000000000000000000e+00
1.817941665649414062e-06,6.854534149169921875e-07,1.192092895507812500e-07,4.172325134277343750e-07,4.440546035766601562e-06,6.854534149169921875e-06
6.889700889587402344e-04,2.603232860565185547e-04,6.487965583801269531e-05,4.827976226806640625e-06,9.400866031646728516e-01,1.549720764160156250e-05
2.497434616088867188e-05,2.622604370117187500e-06,2.682209014892578125e-07,1.667141914367675781e-04,3.166794776916503906e-04,6.900649070739746094e-01
2.384185791015625000e-07,2.980232238769531250e-08,0.000000000000000000e+00,0.000000000000000000e+00,8.642673492431640625e-07,5.960464477539062500e-08
2.831220626831054688e-06,3.278255462646484375e-07,1.788139343261718750e-07,6.854534149169921875e-07,9.018182754516601562e-05,1.341104507446289062e-06
7.531046867370605469e-05,8.553266525268554688e-06,9.238719940185546875e-07,1.440018415451049805e-03,9.825825691223144531e-05,6.258487701416015625e-07
2.104043960571289062e-05,1.847743988037109375e-06,3.278255462646484375e-07,1.549720764160156250e-06,2.479553222656250000e-05,1.814961433410644531e-04
1.461505889892578125e-04,1.299381256103515625e-05,2.980232238769531250e-07,3.382563591003417969e-05,4.777461290359497070e-03,6.430683135986328125e-01
2.765655517578125000e-05,4.112720489501953125e-06,3.874301910400390625e-07,1.013278961181640625e-06,2.163857221603393555e-03,5.662441253662109375e-07
6.970763206481933594e-05,1.367926597595214844e-05,1.427531242370605469e-05,8.359551429748535156e-05,2.846032381057739258e-03,3.453845381736755371e-01
2.682209014892578125e-07,0.000000000000000000e+00,0.000000000000000000e+00,0.000000000000000000e+00,1.341104507446289062e-06,0.000000000000000000e+00
2.086162567138671875e-07,1.192092895507812500e-07,0.000000000000000000e+00,5.960464477539062500e-08,3.159046173095703125e-06,5.960464477539062500e-08
3.010034561157226562e-06,1.788139343261718750e-07,5.960464477539062500e-08,0.000000000000000000e+00,2.223253250122070312e-05,3.576278686523437500e-07
2.980232238769531250e-06,1.192092895507812500e-06,2.086162567138671875e-07,1.150071620941162109e-04,7.390975952148437500e-06,8.940696716308593750e-08
1.722574234008789062e-05,4.470348358154296875e-07,9.238719940185546875e-07,5.364418029785156250e-07,8.672475814819335938e-06,2.980232238769531250e-07
2.294778823852539062e-06,3.576278686523437500e-07,5.662441253662109375e-07,1.788139343261718750e-06,8.046627044677734375e-07,0.000000000000000000e+00
1.448094844818115234e-04,2.950429916381835938e-06,5.245208740234375000e-06,1.013278961181640625e-06,9.587407112121582031e-05,9.238719940185546875e-07
7.957220077514648438e-06,2.980232238769531250e-07,4.172325134277343750e-07,3.099441528320312500e-06,2.413988113403320312e-06,8.940696716308593750e-08
1.671910285949707031e-05,9.834766387939453125e-07,1.490116119384765625e-07,2.846121788024902344e-05,1.965463161468505859e-04,7.324508428573608398e-01
3.752112388610839844e-04,5.600750446319580078e-04,3.316998481750488281e-05,3.553926944732666016e-04,1.966357231140136719e-04,1.105666160583496094e-05
1.490116119384765625e-07,1.788139343261718750e-07,2.980232238769531250e-08,1.013278961181640625e-06,5.960464477539062500e-08,0.000000000000000000e+00
5.013644695281982422e-03,3.510713577270507812e-05,4.857778549194335938e-06,4.559755325317382812e-06,5.429983139038085938e-05,3.516674041748046875e-06
3.225356340408325195e-03,1.910597085952758789e-03,4.908550083637237549e-01,1.785159111022949219e-05,1.320242881774902344e-03,7.352232933044433594e-05
3.173947334289550781e-05,7.748603820800781250e-07,1.788139343261718750e-07,2.562999725341796875e-06,1.579523086547851562e-05,3.354549407958984375e-04
2.877801656723022461e-03,1.092255115509033203e-04,1.814961433410644531e-05,1.720696687698364258e-03,3.293752670288085938e-04,1.937150955200195312e-06
2.980232238769531250e-08,0.000000000000000000e+00,0.000000000000000000e+00,2.980232238769531250e-08,1.192092895507812500e-07,0.000000000000000000e+00
8.160471916198730469e-04,2.294778823852539062e-06,1.192092895507812500e-07,3.159046173095703125e-06,7.453560829162597656e-05,2.682209014892578125e-07
3.692507743835449219e-05,1.043081283569335938e-06,2.086162567138671875e-07,1.192092895507812500e-07,1.689791679382324219e-05,2.682209014892578125e-07
4.976987838745117188e-06,4.768371582031250000e-07,2.086162567138671875e-07,1.609325408935546875e-06,3.081560134887695312e-05,2.086162567138671875e-07
2.339780330657958984e-04,4.007673561573028564e-01,3.170073032379150391e-04,8.869171142578125000e-05,5.168706178665161133e-03,6.250597238540649414e-01
4.884600639343261719e-05,9.566545486450195312e-06,2.393126487731933594e-05,5.954504013061523438e-05,1.900196075439453125e-04,1.460313796997070312e-06
1.868605613708496094e-05,7.212162017822265625e-06,2.625584602355957031e-05,2.622604370117187500e-06,8.672475814819335938e-06,4.768371582031250000e-07
5.555152893066406250e-04,6.319582462310791016e-04,2.473592758178710938e-05,5.025830864906311035e-02,2.996295690536499023e-03,2.497434616088867188e-05
4.768371582031250000e-07,6.258487701416015625e-07,5.066394805908203125e-07,8.940696716308593750e-08,7.122755050659179688e-06,1.490116119384765625e-07
1.728534698486328125e-05,0.000000000000000000e+00,0.000000000000000000e+00,3.278255462646484375e-07,3.695487976074218750e-06,1.192092895507812500e-07
1.490116119384765625e-07,0.000000000000000000e+00,0.000000000000000000e+00,2.980232238769531250e-08,4.470348358154296875e-07,1.788139343261718750e-07
5.215406417846679688e-06,3.397464752197265625e-06,4.172325134277343750e-07,7.474422454833984375e-05,4.529953002929687500e-06,2.086162567138671875e-07
7.212162017822265625e-06,3.993511199951171875e-06,5.662441253662109375e-07,1.197606325149536133e-03,6.556510925292968750e-06,1.490116119384765625e-07
2.443790435791015625e-06,1.192092895507812500e-07,5.960464477539062500e-08,1.788139343261718750e-07,2.416968345642089844e-05,5.960464477539062500e-08
3.872513771057128906e-04,1.400709152221679688e-06,3.874301910400390625e-07,1.043081283569335938e-06,1.513957977294921875e-05,2.980232238769531250e-07
3.267168402671813965e-01,4.297196865081787109e-04,1.103878021240234375e-04,6.180703639984130859e-04,4.036784172058105469e-03,3.170967102050781250e-05
2.980232238769531250e-07,8.940696716308593750e-08,0.000000000000000000e+00,0.000000000000000000e+00,1.370906829833984375e-06,2.086162567138671875e-07
2.491474151611328125e-05,6.556510925292968750e-07,2.086162567138671875e-07,5.275011062622070312e-06,3.719329833984375000e-05,5.990266799926757812e-06
2.235174179077148438e-06,2.056360244750976562e-06,3.099441528320312500e-06,4.172325134277343750e-07,4.172325134277343750e-06,2.980232238769531250e-07
3.159046173095703125e-06,5.960464477539062500e-08,1.192092895507812500e-07,3.278255462646484375e-07,3.963708877563476562e-06,0.000000000000000000e+00
9.536743164062500000e-07,8.940696716308593750e-08,2.980232238769531250e-08,1.192092895507812500e-07,4.172325134277343750e-07,2.980232238769531250e-08
5.990266799926757812e-06,7.748603820800781250e-07,1.192092895507812500e-06,4.410743713378906250e-06,6.467103958129882812e-06,1.490116119384765625e-07
4.023313522338867188e-06,1.937150955200195312e-06,6.854534149169921875e-07,3.159046173095703125e-06,2.638965845108032227e-03,7.387076020240783691e-01
5.751848220825195312e-05,2.175569534301757812e-06,5.960464477539062500e-07,7.629394531250000000e-06,1.816153526306152344e-04,3.599226474761962891e-04
3.576278686523437500e-06,1.925230026245117188e-05,6.258487701416015625e-06,7.390975952148437500e-06,5.453824996948242188e-06,1.192092895507812500e-07
2.682209014892578125e-07,1.788139343261718750e-07,2.980232238769531250e-08,6.556510925292968750e-07,7.361173629760742188e-06,8.046627044677734375e-07
3.501486778259277344e-02,4.532933235168457031e-05,1.728534698486328125e-06,1.922547817230224609e-04,2.065900266170501709e-01,4.404783248901367188e-05
2.980232238769531250e-07,4.470348358154296875e-07,0.000000000000000000e+00,6.639957427978515625e-04,5.364418029785156250e-07,2.166232466697692871e-02
2.384185791015625000e-07,1.490116119384765625e-07,2.980232238769531250e-08,1.788139343261718750e-07,1.788139343261718750e-07,0.000000000000000000e+00
1.102685928344726562e-06,0.000000000000000000e+00,0.000000000000000000e+00,2.086162567138671875e-07,2.205371856689453125e-06,8.940696716308593750e-08
1.251697540283203125e-06,1.281499862670898438e-06,1.192092895507812500e-07,1.192092895507812500e-07,2.700090408325195312e-05,3.457069396972656250e-06
4.025101661682128906e-04,2.264976501464843750e-06,4.261732101440429688e-06,1.460313796997070312e-06,1.022219657897949219e-05,2.086162567138671875e-07
3.734230995178222656e-05,5.394220352172851562e-06,1.251697540283203125e-06,1.117587089538574219e-05,2.652406692504882812e-05,2.086162567138671875e-07
3.321349620819091797e-03,1.585483551025390625e-05,2.217292785644531250e-05,1.585781574249267578e-04,9.470283985137939453e-04,3.874301910400390625e-06
4.512071609497070312e-05,5.096197128295898438e-06,7.152557373046875000e-07,6.577372550964355469e-05,8.547604084014892578e-04,7.089572548866271973e-01
1.430511474609375000e-06,5.066394805908203125e-07,0.000000000000000000e+00,2.682209014892578125e-07,5.185604095458984375e-06,1.490116119384765625e-07
2.753734588623046875e-05,2.175569534301757812e-06,7.748603820800781250e-07,5.674958229064941406e-04,1.996755599975585938e-06,5.960464477539062500e-08
7.927417755126953125e-06,1.490116119384765625e-07,1.490116119384765625e-07,5.155801773071289062e-06,7.390975952148437500e-06,1.490116119384765625e-07
1.698732376098632812e-06,5.960464477539062500e-08,0.000000000000000000e+00,7.748603820800781250e-07,2.086162567138671875e-07,0.000000000000000000e+00
8.070468902587890625e-05,2.741813659667968750e-06,1.192092895507812500e-06,3.695487976074218750e-06,1.221895217895507812e-05,1.192092895507812500e-07
1.758337020874023438e-05,5.662441253662109375e-07,2.980232238769531250e-08,3.218650817871093750e-06,1.058608293533325195e-03,7.673490643501281738e-01
8.433759212493896484e-04,1.363456249237060547e-04,8.034943938255310059e-01,1.129508018493652344e-05,7.847845554351806641e-04,1.215934753417968750e-04
2.390146255493164062e-05,3.576278686523437500e-07,2.980232238769531250e-08,1.373887062072753906e-05,8.118152618408203125e-05,3.576278686523437500e-07
2.366304397583007812e-05,4.678964614868164062e-06,4.172325134277343750e-07,7.778406143188476562e-06,1.317262649536132812e-05,8.940696716308593750e-08
2.029359340667724609e-03,3.182053565979003906e-03,6.461143493652343750e-05,4.611212313175201416e-01,4.670649766921997070e-03,1.023977994918823242e-03
4.649162292480468750e-06,0.000000000000000000e+00,0.000000000000000000e+00,0.000000000000000000e+00,8.761882781982421875e-06,1.192092895507812500e-07
1.908063888549804688e-03,1.646727323532104492e-03,1.762038469314575195e-02,9.551137685775756836e-03,5.054920911788940430e-03,8.947879076004028320e-02
3.308057785034179688e-06,8.344650268554687500e-07,3.874301910400390625e-07,1.287460327148437500e-05,4.917383193969726562e-06,1.192092895507812500e-07
5.960464477539062500e-08,1.877546310424804688e-06,1.042187213897705078e-04,0.000000000000000000e+00,2.086162567138671875e-07,8.940696716308593750e-08
7.361173629760742188e-06,1.069903373718261719e-05,5.751848220825195312e-06,5.066394805908203125e-06,9.804964065551757812e-06,4.172325134277343750e-07
5.370378494262695312e-05,4.470348358154296875e-07,2.384185791015625000e-07,4.261732101440429688e-06,2.586841583251953125e-05,2.086162567138671875e-07
1.055002212524414062e-05,1.937150955200195312e-06,1.192092895507812500e-07,4.261732101440429688e-06,3.693997859954833984e-04,7.673959732055664062e-01
2.685487270355224609e-04,8.181333541870117188e-04,4.479289054870605469e-05,5.301815271377563477e-02,1.142680644989013672e-03,1.510977745056152344e-05
7.748603820800781250e-07,0.000000000000000000e+00,0.000000000000000000e+00,3.278255462646484375e-07,1.728534698486328125e-06,2.980232238769531250e-08
2.622604370117187500e-06,1.400709152221679688e-06,8.940696716308593750e-08,6.009638309478759766e-04,1.549720764160156250e-06,0.000000000000000000e+00
7.152557373046875000e-07,9.536743164062500000e-07,8.046627044677734375e-07,0.000000000000000000e+00,6.884336471557617188e-05,3.099441528320312500e-06
1.105666160583496094e-05,6.377696990966796875e-06,4.398822784423828125e-05,5.066394805908203125e-07,2.303719520568847656e-05,2.980232238769531250e-07
5.781650543212890625e-05,4.202127456665039062e-06,8.344650268554687500e-07,2.831220626831054688e-06,1.222670078277587891e-03,6.258487701416015625e-07
2.930760383605957031e-04,6.049871444702148438e-06,4.589557647705078125e-06,2.092123031616210938e-05,1.547634601593017578e-04,1.376867294311523438e-05
1.310706138610839844e-04,4.600346088409423828e-03,2.345740795135498047e-04,1.465287804603576660e-02,3.662705421447753906e-05,2.175569534301757812e-06
1.256495714187622070e-03,8.136034011840820312e-06,2.145767211914062500e-06,2.682209014892578125e-07,6.705522537231445312e-05,3.993511199951171875e-06
2.733021974563598633e-03,5.319744348526000977e-03,5.792647600173950195e-03,4.340022802352905273e-03,1.752436161041259766e-03,8.296966552734375000e-05
1.811981201171875000e-05,5.692243576049804688e-06,4.172325134277343750e-07,3.844499588012695312e-06,5.784630775451660156e-05,2.920627593994140625e-06
2.288818359375000000e-05,3.278255462646484375e-06,3.874301910400390625e-07,5.981922149658203125e-04,5.111098289489746094e-05,1.788139343261718750e-07
2.854704856872558594e-03,1.578211784362792969e-03,9.721517562866210938e-05,2.629563212394714355e-02,1.153349876403808594e-03,5.333387851715087891e-02
4.848837852478027344e-05,4.577636718750000000e-05,2.372264862060546875e-05,4.584163427352905273e-03,2.789497375488281250e-05,6.258487701416015625e-07
2.980232238769531250e-08,0.000000000000000000e+00,0.000000000000000000e+00,0.000000000000000000e+00,0.000000000000000000e+00,0.000000000000000000e+00
7.075071334838867188e-05,8.672475814819335938e-06,3.874301910400390625e-07,1.639127731323242188e-06,1.978874206542968750e-05,3.278255462646484375e-07
1.107818484306335449e-01,7.846951484680175781e-05,1.246929168701171875e-04,5.577802658081054688e-04,4.687875509262084961e-03,2.849102020263671875e-05
2.163648605346679688e-05,3.993511199951171875e-06,7.748603820800781250e-07,5.676150321960449219e-04,8.702278137207031250e-06,2.682209014892578125e-07
5.662441253662109375e-07,2.086162567138671875e-07,4.470348358154296875e-07,1.788139343261718750e-07,3.069639205932617188e-06,2.682209014892578125e-07
8.612871170043945312e-06,4.470348358154296875e-07,1.192092895507812500e-07,3.078579902648925781e-05,6.049871444702148438e-06,8.940696716308593750e-08
6.258487701416015625e-07,6.258487701416015625e-07,5.960464477539062500e-08,1.490116119384765625e-07,2.264976501464843750e-06,0.000000000000000000e+00
1.929315924644470215e-02,5.050301551818847656e-04,5.685136318206787109e-01,3.418326377868652344e-05,5.024075508117675781e-04,6.416440010070800781e-05
2.372264862060546875e-05,2.086162567138671875e-07,8.642673492431640625e-07,9.477138519287109375e-06,5.662441253662109375e-07,2.980232238769531250e-08
8.568167686462402344e-05,7.396936416625976562e-05,5.239248275756835938e-05,1.069426536560058594e-03,1.926422119140625000e-04,2.443790435791015625e-06
2.719163894653320312e-04,3.353357315063476562e-04,1.430511474609375000e-05,4.118680953979492188e-05,1.812875270843505859e-04,1.192092895507812500e-06
2.628564834594726562e-05,5.066394805908203125e-07,3.874301910400390625e-07,1.460313796997070312e-06,4.678964614868164062e-06,0.000000000000000000e+00
9.298324584960937500e-06,1.192092895507812500e-07,0.000000000000000000e+00,4.172325134277343750e-06,7.107853889465332031e-05,2.682209014892578125e-07
8.172899484634399414e-03,7.599592208862304688e-06,2.026557922363281250e-06,2.479553222656250000e-05,2.348423004150390625e-05,1.490116119384765625e-07
9.232759475708007812e-05,8.225440979003906250e-06,4.857778549194335938e-06,4.738569259643554688e-06,2.858340740203857422e-04,4.329979419708251953e-04
1.162290573120117188e-06,1.788139343261718750e-07,0.000000000000000000e+00,4.172325134277343750e-07,1.469254493713378906e-05,2.682209014892578125e-07
8.940696716308593750e-08,0.000000000000000000e+00,0.000000000000000000e+00,1.788139343261718750e-07,0.000000000000000000e+00,0.000000000000000000e+00
1.735925674438476562e-03,3.266036510467529297e-04,5.832314491271972656e-05,4.156231880187988281e-04,1.212060451507568359e-04,6.860494613647460938e-05
3.173947334289550781e-05,6.258487701416015625e-07,2.086162567138671875e-07,1.490116119384765625e-07,1.111626625061035156e-05,4.768371582031250000e-07
1.373887062072753906e-05,1.329183578491210938e-05,2.112984657287597656e-05,3.278255462646484375e-06,5.176663398742675781e-05,2.384185791015625000e-07
1.013278961181640625e-06,2.980232238769531250e-08,0.000000000000000000e+00,6.854534149169921875e-07,3.635883331298828125e-06,5.960464477539062500e-08
4.947185516357421875e-06,3.874301910400390625e-07,3.278255462646484375e-07,9.536743164062500000e-07,4.321336746215820312e-06,5.960464477539062500e-08
2.235174179077148438e-06,2.682209014892578125e-07,1.788139343261718750e-07,5.066394805908203125e-07,3.457069396972656250e-06,1.192092895507812500e-07
1.192092895507812500e-07,0.000000000000000000e+00,0.000000000000000000e+00,1.192092895507812500e-07,2.682209014892578125e-07,2.384185791015625000e-07
3.457069396972656250e-05,1.126527786254882812e-05,2.354383468627929688e-05,2.734065055847167969e-04,4.708766937255859375e-06,7.748603820800781250e-07
5.292266607284545898e-03,4.470348358154296875e-07,8.940696716308593750e-08,2.294778823852539062e-06,6.571412086486816406e-05,2.384185791015625000e-06
3.717839717864990234e-04,9.402632713317871094e-05,5.081295967102050781e-05,1.379847526550292969e-05,3.425121307373046875e-03,1.403689384460449219e-05
1.013278961181640625e-06,8.940696716308593750e-08,2.980232238769531250e-08,3.576278686523437500e-07,4.947185516357421875e-06,0.000000000000000000e+00
1.246035099029541016e-04,6.645917892456054688e-06,3.278255462646484375e-06,1.403689384460449219e-05,2.652406692504882812e-05,3.874301910400390625e-07
2.083182334899902344e-05,1.460313796997070312e-06,4.470348358154296875e-07,7.152557373046875000e-07,1.969933509826660156e-05,2.136826515197753906e-05
1.788139343261718750e-07,0.000000000000000000e+00,0.000000000000000000e+00,5.960464477539062500e-08,1.251697540283203125e-06,2.980232238769531250e-08
8.767843246459960938e-05,4.309265613555908203e-01,9.701550006866455078e-04,8.136034011840820312e-06,1.346468925476074219e-04,3.635883331298828125e-06
2.159178256988525391e-04,3.188848495483398438e-06,5.364418029785156250e-07,6.759166717529296875e-05,2.196133136749267578e-04,4.768371582031250000e-07
4.503130912780761719e-05,1.835823059082031250e-05,1.627206802368164062e-05,1.311302185058593750e-06,2.354383468627929688e-05,1.567602157592773438e-05
1.460313796997070312e-06,5.960464477539062500e-08,0.000000000000000000e+00,2.086162567138671875e-07,1.758337020874023438e-06,8.940696716308593750e-08
2.980232238769531250e-08,0.000000000000000000e+00,0.000000000000000000e+00,0.000000000000000000e+00,8.940696716308593750e-08,5.960464477539062500e-08
3.522038459777832031e-04,1.004338264465332031e-05,1.311302185058593750e-06,1.063406467437744141e-03,6.684660911560058594e-05,8.553266525268554688e-06
7.599592208862304688e-06,3.188848495483398438e-06,4.172325134277343750e-07,2.202391624450683594e-05,1.679062843322753906e-04,6.943197250366210938e-01
5.802512168884277344e-05,2.527236938476562500e-05,1.633167266845703125e-05,8.395612239837646484e-04,2.306699752807617188e-05,1.430511474609375000e-06
2.076912224292755127e-01,2.673268318176269531e-05,9.894371032714843750e-06,1.677870750427246094e-05,5.906432867050170898e-03,4.971027374267578125e-05
4.708766937255859375e-06,1.788139343261718750e-07,1.192092895507812500e-07,3.278255462646484375e-07,2.577900886535644531e-05,2.086162567138671875e-07
1.281687617301940918e-02,7.910132408142089844e-04,5.345194339752197266e-01,2.767741680145263672e-04,3.326210379600524902e-02,4.587569832801818848e-02
1.639127731323242188e-06,1.490116119384765625e-07,2.980232238769531250e-08,2.145767211914062500e-06,4.380941390991210938e-06,1.490116119384765625e-07
1.708739399909973145e-01,2.501457929611206055e-03,5.483701825141906738e-01,1.716852188110351562e-03,2.259169816970825195e-01,8.827447891235351562e-04
1.946091651916503906e-05,5.066394805908203125e-07,1.043081283569335938e-06,2.384185791015625000e-07,4.687905311584472656e-05,2.682209014892578125e-07
2.485084533691406250e-02,7.357766628265380859e-01,3.845036029815673828e-03,1.838803291320800781e-05,1.905500888824462891e-03,2.080202102661132812e-05
5.975365638732910156e-05,5.960464477539062500e-08,1.192092895507812500e-07,1.788139343261718750e-07,2.086162567138671875e-06,8.940696716308593750e-08
0.000000000000000000e+00,0.000000000000000000e+00,0.000000000000000000e+00,0.000000000000000000e+00,8.940696716308593750e-08,0.000000000000000000e+00
9.524822235107421875e-05,3.784894943237304688e-06,8.344650268554687500e-07,1.937150955200195312e-06,3.498792648315429688e-05,6.703734397888183594e-04
1.160711050033569336e-03,2.309679985046386719e-05,7.480382919311523438e-06,2.115964889526367188e-06,9.252218008041381836e-01,2.861022949218750000e-05
8.702278137207031250e-06,1.215934753417968750e-05,3.278255462646484375e-07,3.725290298461914062e-06,1.689791679382324219e-05,1.174211502075195312e-05
1.162290573120117188e-06,2.980232238769531250e-07,3.874301910400390625e-07,8.940696716308593750e-08,1.198053359985351562e-05,2.652406692504882812e-06
2.828538417816162109e-04,1.686811447143554688e-05,9.152293205261230469e-05,2.115964889526367188e-06,8.237361907958984375e-05,2.980232238769531250e-06
1.740455627441406250e-05,2.384185791015625000e-07,2.980232238769531250e-08,5.662441253662109375e-07,5.981326103210449219e-05,1.251697540283203125e-06
5.125403404235839844e-04,2.920627593994140625e-06,2.384185791015625000e-07,1.046061515808105469e-05,7.042288780212402344e-05,2.026557922363281250e-06
2.890825271606445312e-05,6.258487701416015625e-07,5.960464477539062500e-08,5.960464477539062500e-07,2.601742744445800781e-05,3.278255462646484375e-07
6.240606307983398438e-05,3.561377525329589844e-05,1.341104507446289062e-05,2.066016197204589844e-03,7.867813110351562500e-06,1.966953277587890625e-06
1.192092895507812500e-07,0.000000000000000000e+00,0.000000000000000000e+00,0.000000000000000000e+00,4.470348358154296875e-07,0.000000000000000000e+00
1.299381256103515625e-05,5.960464477539062500e-08,5.960464477539062500e-08,7.152557373046875000e-07,6.711483001708984375e-05,3.159046173095703125e-06
2.849400043487548828e-04,2.515017986297607422e-04,3.403425216674804688e-05,5.578994750976562500e-05,1.131296157836914062e-04,5.483627319335937500e-06
4.678964614868164062e-06,3.278255462646484375e-07,1.788139343261718750e-07,7.212162017822265625e-06,2.682209014892578125e-06,2.980232238769531250e-08
1.129508018493652344e-05,2.115964889526367188e-06,2.682209014892578125e-07,1.686811447143554688e-05,7.936358451843261719e-05,3.933906555175781250e-06
1.484155654907226562e-05,1.892447471618652344e-05,4.291534423828125000e-06,1.516044139862060547e-03,1.674890518188476562e-05,1.609325408935546875e-06
6.616115570068359375e-06,2.476572990417480469e-05,6.279349327087402344e-05,2.682209014892578125e-06,1.826882362365722656e-05,7.748603820800781250e-07
9.238719940185546875e-05,2.484023571014404297e-04,2.288818359375000000e-05,1.747965812683105469e-03,5.156040191650390625e-03,9.156823158264160156e-03
1.149475574493408203e-04,5.662441253662109375e-07,5.364418029785156250e-07,3.546476364135742188e-06,6.783008575439453125e-05,1.221895217895507812e-06
2.151727676391601562e-05,4.470348358154296875e-07,8.940696716308593750e-08,1.192092895507812500e-07,5.573034286499023438e-06,3.874301910400390625e-07
7.748603820800781250e-07,2.682209014892578125e-07,1.877546310424804688e-06,5.960464477539062500e-08,1.966953277587890625e-06,1.192092895507812500e-07
1.341104507446289062e-06,1.192092895507812500e-07,8.940696716308593750e-08,5.960464477539062500e-08,6.765127182006835938e-06,1.192092895507812500e-07
1.074969768524169922e-04,5.367100238800048828e-04,1.250828504562377930e-01,8.046627044677734375e-07,2.035498619079589844e-05,5.602836608886718750e-06
4.768371582031250000e-07,0.000000000000000000e+00,0.000000000000000000e+00,0.000000000000000000e+00,6.258487701416015625e-07,0.000000000000000000e+00
9.536743164062500000e-07,8.940696716308593750e-08,0.000000000000000000e+00,0.000000000000000000e+00,1.192092895507812500e-06,2.980232238769531250e-08
2.050399780273437500e-05,3.665685653686523438e-06,1.370906829833984375e-06,2.443790435791015625e-06,1.248717308044433594e-05,3.576278686523437500e-07
4.421770572662353516e-04,5.546212196350097656e-05,6.344914436340332031e-05,7.407963275909423828e-04,2.270936965942382812e-05,1.946091651916503906e-05
2.384185791015625000e-06,1.490116119384765625e-07,0.000000000000000000e+00,2.980232238769531250e-07,7.539987564086914062e-06,1.788139343261718750e-07
4.637241363525390625e-05,2.300739288330078125e-05,3.603100776672363281e-05,2.741813659667968750e-06,3.015995025634765625e-05,3.188848495483398438e-06
7.212162017822265625e-06,1.281499862670898438e-06,3.248453140258789062e-06,2.086162567138671875e-07,8.851289749145507812e-06,1.788139343261718750e-07
1.604855060577392578e-04,1.496076583862304688e-05,4.759430885314941406e-05,7.450580596923828125e-06,6.149619817733764648e-03,8.447021245956420898e-03
2.086162567138671875e-07,0.000000000000000000e+00,0.000000000000000000e+00,2.980232238769531250e-08,5.185604095458984375e-06,1.490116119384765625e-07
2.897381782531738281e-03,8.313448429107666016e-01,1.308438181877136230e-02,4.768371582031250000e-07,2.539306879043579102e-03,2.897977828979492188e-04
5.394220352172851562e-06,4.044175148010253906e-05,4.768371582031250000e-07,8.940696716308593750e-07,7.778406143188476562e-06,1.490116119384765625e-07
4.559755325317382812e-06,3.427267074584960938e-06,8.940696716308593750e-07,7.206499576568603516e-04,3.010034561157226562e-06,1.490116119384765625e-07
8.344650268554687500e-07,2.086162567138671875e-07,5.960464477539062500e-08,5.960464477539062500e-08,1.433491706848144531e-05,4.768371582031250000e-07
1.129925251007080078e-03,5.377531051635742188e-04,5.496328473091125488e-01,1.093745231628417969e-05,1.457750797271728516e-03,5.004107952117919922e-04
1.800060272216796875e-05,1.341104507446289062e-06,1.549720764160156250e-06,1.042485237121582031e-04,6.973743438720703125e-06,1.490116119384765625e-07
4.798173904418945312e-06,7.390975952148437500e-06,3.114342689514160156e-05,1.192092895507812500e-06,2.953410148620605469e-05,2.592802047729492188e-06
2.592802047729492188e-06,1.788139343261718750e-07,1.788139343261718750e-07,2.384185791015625000e-07,1.996755599975585938e-06,1.788139343261718750e-07
2.786517143249511719e-05,8.642673492431640625e-07,3.874301910400390625e-07,2.086162567138671875e-07,1.764297485351562500e-05,1.090764999389648438e-05
2.930089831352233887e-02,6.665382385253906250e-01,1.768502593040466309e-02,1.500844955444335938e-04,4.956364631652832031e-03,1.890063285827636719e-04
2.059340476989746094e-05,8.344650268554687500e-07,7.450580596923828125e-07,2.682209014892578125e-07,9.596347808837890625e-06,1.192092895507812500e-07
2.753734588623046875e-05,4.112720489501953125e-06,2.145767211914062500e-06,1.403093338012695312e-04,1.648068428039550781e-05,1.490116119384765625e-07
1.204013824462890625e-05,7.152557373046875000e-07,2.980232238769531250e-07,1.847743988037109375e-06,5.492568016052246094e-05,2.086162567138671875e-07
6.552845239639282227e-03,2.291500568389892578e-04,9.072566628456115723e-01,1.320630311965942383e-03,8.896291255950927734e-04,3.069639205932617188e-06
5.712807178497314453e-04,1.627802848815917969e-04,1.491904258728027344e-04,4.659891128540039062e-04,4.767179489135742188e-04,1.937150955200195312e-06
6.196796894073486328e-04,5.063414573669433594e-05,1.525878906250000000e-05,1.817941665649414062e-06,6.103515625000000000e-05,7.659196853637695312e-06
7.126629352569580078e-04,1.823902130126953125e-05,1.022219657897949219e-05,4.494190216064453125e-05,1.022219657897949219e-05,1.192092895507812500e-07
2.086162567138671875e-07,0.000000000000000000e+00,0.000000000000000000e+00,8.940696716308593750e-08,6.258487701416015625e-07,2.980232238769531250e-08
3.278255462646484375e-07,5.960464477539062500e-08,2.980232238769531250e-08,5.960464477539062500e-08,8.344650268554687500e-07,0.000000000000000000e+00
8.493661880493164062e-06,1.788139343261718750e-07,2.980232238769531250e-08,6.556510925292968750e-07,7.450580596923828125e-06,0.000000000000000000e+00
2.154707908630371094e-05,2.086162567138671875e-07,0.000000000000000000e+00,3.725290298461914062e-06,5.565583705902099609e-04,7.826133966445922852e-01
4.827976226806640625e-05,6.854534149169921875e-07,1.490116119384765625e-07,7.152557373046875000e-07,2.181529998779296875e-05,1.490116119384765625e-07
1.698732376098632812e-06,1.192092895507812500e-07,0.000000000000000000e+00,5.960464477539062500e-08,2.458691596984863281e-05,3.278255462646484375e-07
4.667043685913085938e-05,1.439452171325683594e-05,8.761882781982421875e-06,1.448392868041992188e-05,2.428293228149414062e-04,1.639127731323242188e-06
3.244933485984802246e-02,9.543779492378234863e-02,1.285979151725769043e-02,4.880726337432861328e-04,7.616108655929565430e-02,1.752883195877075195e-03
9.864568710327148438e-06,5.155801773071289062e-06,4.798173904418945312e-06,1.758337020874023438e-06,1.191198825836181641e-04,1.162290573120117188e-06
1.758337020874023438e-06,2.980232238769531250e-07,3.278255462646484375e-07,7.152557373046875000e-07,8.940696716308593750e-06,2.086162567138671875e-07
8.940696716308593750e-08,1.490116119384765625e-07,0.000000000000000000e+00,1.192092895507812500e-07,2.086162567138671875e-07,0.000000000000000000e+00
6.705522537231445312e-06,8.940696716308593750e-07,5.960464477539062500e-08,1.156330108642578125e-05,1.072883605957031250e-05,5.364418029785156250e-07
1.102685928344726562e-06,1.192092895507812500e-07,0.000000000000000000e+00,2.980232238769531250e-08,3.010034561157226562e-06,0.000000000000000000e+00
2.031028270721435547e-04,1.391768455505371094e-05,7.542967796325683594e-05,4.768371582031250000e-07,1.882910728454589844e-04,2.264976501464843750e-06
9.343773126602172852e-03,7.175475358963012695e-03,1.040399074554443359e-04,5.022532343864440918e-01,3.303915262222290039e-03,1.188218593597412109e-04
9.542703628540039062e-05,1.851320266723632812e-04,9.196996688842773438e-05,1.212954521179199219e-05,5.069375038146972656e-05,6.514787673950195312e-05
1.341104507446289062e-06,2.980232238769531250e-08,0.000000000000000000e+00,3.874301910400390625e-07,9.924173355102539062e-06,8.940696716308593750e-08
6.183683872222900391e-04,6.180107593536376953e-04,6.234645843505859375e-05,1.668837666511535645e-02,2.538651227951049805e-03,1.063647866249084473e-02
3.477931022644042969e-05,7.122755050659179688e-06,1.192092895507812500e-06,1.680552959442138672e-04,2.399086952209472656e-05,1.192092895507812500e-07
2.759099006652832031e-03,4.559755325317382812e-06,6.824731826782226562e-06,1.505017280578613281e-05,2.579391002655029297e-04,1.996755599975585938e-06
2.980232238769531250e-07,5.960464477539062500e-08,1.490116119384765625e-07,1.490116119384765625e-07,7.152557373046875000e-07,1.192092895507812500e-07
7.826089859008789062e-05,1.996755599975585938e-06,5.662441253662109375e-07,8.940696716308593750e-07,4.482269287109375000e-05,6.258487701416015625e-07
5.662441253662109375e-07,0.000000000000000000e+00,0.000000000000000000e+00,2.980232238769531250e-08,9.238719940185546875e-07,2.980232238769531250e-08
2.980232238769531250e-07,1.788139343261718750e-07,0.000000000000000000e+00,1.192092895507812500e-07,7.152557373046875000e-06,5.960464477539062500e-08
5.868077278137207031e-05,8.597520589828491211e-01,1.410883665084838867e-02,5.066394805908203125e-07,4.497170448303222656e-04,3.680586814880371094e-05
2.950429916381835938e-06,1.490116119384765625e-07,2.980232238769531250e-08,5.960464477539062500e-08,7.987022399902343750e-06,1.788139343261718750e-07
7.776021957397460938e-04,8.931756019592285156e-05,2.250075340270996094e-05,1.863539218902587891e-04,3.949850797653198242e-03,6.145238876342773438e-05
9.269803762435913086e-03,8.940696716308593750e-06,3.010034561157226562e-06,9.447336196899414062e-06,3.891736268997192383e-03,1.308321952819824219e-05
1.251697540283203125e-05,1.132488250732421875e-06,1.072883605957031250e-06,8.046627044677734375e-07,4.196166992187500000e-05,2.980232238769531250e-07
8.732080459594726562e-06,1.490116119384765625e-07,8.940696716308593750e-08,0.000000000000000000e+00,1.549720764160156250e-06,5.960464477539062500e-08
6.000801324844360352e-01,2.441704273223876953e-04,3.620982170104980469e-05,1.332759857177734375e-04,1.032501459121704102e-03,3.874301910400390625e-07
6.854534149169921875e-07,1.788139343261718750e-07,2.980232238769531250e-08,4.470348358154296875e-07,1.966953277587890625e-06,0.000000000000000000e+00
4.649162292480468750e-06,4.768371582031250000e-07,7.152557373046875000e-07,8.344650268554687500e-07,6.467103958129882812e-06,1.490116119384765625e-07
1.551210880279541016e-04,5.742907524108886719e-05,2.261996269226074219e-05,1.635015010833740234e-03,8.121132850646972656e-05,1.609325408935546875e-06
1.341104507446289062e-06,1.490116119384765625e-07,5.960464477539062500e-08,5.960464477539062500e-08,3.278255462646484375e-06,2.980232238769531250e-08
1.021298170089721680e-01,9.083539247512817383e-02,6.270667910575866699e-02,6.277054548263549805e-03,4.976174235343933105e-02,7.555484771728515625e-04
3.176943063735961914e-01,6.999704837799072266e-01,4.611572623252868652e-02,2.257138490676879883e-03,1.797419786453247070e-02,4.015266895294189453e-04
5.281269550323486328e-04,1.237124204635620117e-03,1.168251037597656250e-05,5.318098664283752441e-01,1.508325338363647461e-03,6.264448165893554688e-04
5.206030011177062988e-01,3.775656223297119141e-04,8.520483970642089844e-05,7.732510566711425781e-04,2.765625715255737305e-03,3.725290298461914062e-06
1.355975866317749023e-03,1.520812511444091797e-04,8.661342859268188477e-01,1.567602157592773438e-05,6.890833377838134766e-03,1.086890697479248047e-04
3.119111061096191406e-04,2.145767211914062500e-06,5.960464477539062500e-08,1.078844070434570312e-05,1.800060272216796875e-05,5.960464477539062500e-08
1.490116119384765625e-07,0.000000000000000000e+00,0.000000000000000000e+00,3.278255462646484375e-07,1.192092895507812500e-06,0.000000000000000000e+00
7.659494876861572266e-03,4.452466964721679688e-05,1.254677772521972656e-05,4.413723945617675781e-05,7.818689942359924316e-01,2.226173877716064453e-03
3.069639205932617188e-05,7.215142250061035156e-05,4.440546035766601562e-06,5.751848220825195312e-06,1.668930053710937500e-06,2.980232238769531250e-08
1.013278961181640625e-06,5.960464477539062500e-08,8.940696716308593750e-08,8.940696716308593750e-08,2.354383468627929688e-06,2.980232238769531250e-08
5.364418029785156250e-07,8.940696716308593750e-08,0.000000000000000000e+00,0.000000000000000000e+00,2.622604370117187500e-06,8.940696716308593750e-08
4.917383193969726562e-06,0.000000000000000000e+00,0.000000000000000000e+00,8.940696716308593750e-08,4.202127456665039062e-06,0.000000000000000000e+00
3.969341516494750977e-03,5.042850971221923828e-04,7.534841895103454590e-01,1.004636287689208984e-04,1.525461673736572266e-03,1.321136951446533203e-04
2.360343933105468750e-05,9.852945804595947266e-04,4.018694162368774414e-03,1.013278961181640625e-06,3.176927566528320312e-05,2.712011337280273438e-06
1.293003559112548828e-03,3.018975257873535156e-05,1.937150955200195312e-06,1.186558604240417480e-02,3.319531679153442383e-02,6.155967712402343750e-04
3.328293561935424805e-03,7.033911943435668945e-01,1.503077149391174316e-02,1.577436923980712891e-04,7.954081892967224121e-02,1.401901245117187500e-04
5.549192428588867188e-05,7.003545761108398438e-06,4.470348358154296875e-07,1.996755599975585938e-06,6.467103958129882812e-06,6.258487701416015625e-07
3.617703914642333984e-04,3.546476364135742188e-05,6.258487701416015625e-07,6.997585296630859375e-05,3.466010093688964844e-05,2.980232238769531250e-07
2.980232238769531250e-07,1.192092895507812500e-07,5.960464477539062500e-08,0.000000000000000000e+00,1.540780067443847656e-05,1.788139343261718750e-07
3.904104232788085938e-06,5.960464477539062500e-08,2.980232238769531250e-08,2.086162567138671875e-07,1.353025436401367188e-05,3.576278686523437500e-07
5.185604095458984375e-05,3.576278686523437500e-07,8.940696716308593750e-08,2.861022949218750000e-06,3.665685653686523438e-06,1.788139343261718750e-07
2.443790435791015625e-06,4.708766937255859375e-06,7.152557373046875000e-07,1.490116119384765625e-07,1.847743988037109375e-06,5.960464477539062500e-08
3.772974014282226562e-05,8.940696716308593750e-06,4.082918167114257812e-06,1.667737960815429688e-04,8.538365364074707031e-05,3.129243850708007812e-06
1.321077346801757812e-03,4.664063453674316406e-05,2.205371856689453125e-06,4.191994667053222656e-04,2.517759799957275391e-03,8.697807788848876953e-04
3.225207328796386719e-04,8.429980874061584473e-01,7.240772247314453125e-04,3.188848495483398438e-06,2.531051635742187500e-03,3.993511199951171875e-06
2.789497375488281250e-05,5.099177360534667969e-05,4.643201828002929688e-05,2.022951841354370117e-03,2.166628837585449219e-05,2.443790435791015625e-06
3.570318222045898438e-05,1.137827038764953613e-01,5.354255437850952148e-03,1.788139343261718750e-06,2.864003181457519531e-05,4.589557647705078125e-06
5.359312891960144043e-02,2.211183309555053711e-03,9.208619594573974609e-04,3.257572650909423828e-03,2.768353521823883057e-01,2.327829599380493164e-03
1.113116741180419922e-04,4.369914531707763672e-04,1.533031463623046875e-04,6.562769412994384766e-04,8.389353752136230469e-05,9.238719940185546875e-07
1.221895217895507812e-06,1.099705696105957031e-05,2.086162567138671875e-06,6.258487701416015625e-07,2.959370613098144531e-05,2.384185791015625000e-07
9.685754776000976562e-06,3.010034561157226562e-06,7.748603820800781250e-07,2.086162567138671875e-07,9.328126907348632812e-06,1.192092895507812500e-07
6.937980651855468750e-05,9.626150131225585938e-06,2.801418304443359375e-06,7.629394531250000000e-05,5.677342414855957031e-05,2.980232238769531250e-07
9.238719940185546875e-07,2.980232238769531250e-08,0.000000000000000000e+00,1.788139343261718750e-07,2.026557922363281250e-06,0.000000000000000000e+00
1.162290573120117188e-06,6.258487701416015625e-07,8.940696716308593750e-08,7.152557373046875000e-07,7.629394531250000000e-06,2.980232238769531250e-07
1.609325408935546875e-06,3.337860107421875000e-06,4.470348358154296875e-07,9.983777999877929688e-06,4.404783248901367188e-05,3.308057785034179688e-06
1.937150955200195312e-05,1.847743988037109375e-06,2.056360244750976562e-06,1.913309097290039062e-05,3.043413162231445312e-04,7.279092073440551758e-01
4.200505018234252930e-01,1.544415950775146484e-03,3.118515014648437500e-04,2.365708351135253906e-03,3.597378730773925781e-03,4.166364669799804688e-05
1.153454184532165527e-02,1.907348632812500000e-06,4.023313522338867188e-06,3.248453140258789062e-06,1.588463783264160156e-04,4.768371582031250000e-07
1.958310604095458984e-03,7.481597661972045898e-01,4.185378551483154297e-03,1.198351383209228516e-04,7.276862859725952148e-03,1.981854438781738281e-05
1.008808612823486328e-04,5.933642387390136719e-05,2.056360244750976562e-06,2.104848623275756836e-03,4.398822784423828125e-05,1.311302185058593750e-06
2.601772546768188477e-03,7.808208465576171875e-06,2.294778823852539062e-06,2.520084381103515625e-04,3.891885280609130859e-04,1.132488250732421875e-06
5.738973617553710938e-03,5.480349063873291016e-04,7.808210253715515137e-01,2.807080745697021484e-04,1.153960824012756348e-02,2.963542938232421875e-04
1.311302185058593750e-06,0.000000000000000000e+00,0.000000000000000000e+00,5.960464477539062500e-08,1.490116119384765625e-07,0.000000000000000000e+00
3.837049007415771484e-03,9.405314922332763672e-04,6.611973047256469727e-01,1.790046691894531250e-03,3.163158893585205078e-03,3.338754177093505859e-04
1.933574676513671875e-04,2.511441707611083984e-04,6.952881813049316406e-05,1.583382487297058105e-02,1.210868358612060547e-04,1.826882362365722656e-05
4.202127456665039062e-06,3.278255462646484375e-07,4.470348358154296875e-07,3.576278686523437500e-07,1.764297485351562500e-05,6.854534149169921875e-07
8.940696716308593750e-08,0.000000000000000000e+00,0.000000000000000000e+00,0.000000000000000000e+00,2.086162567138671875e-07,1.192092895507812500e-07
1.192092895507812500e-06,5.066394805908203125e-07,3.278255462646484375e-07,2.175569534301757812e-06,2.604722976684570312e-05,2.980232238769531250e-07
1.084536314010620117e-03,2.712011337280273438e-06,2.890825271606445312e-06,3.042817115783691406e-05,2.002716064453125000e-05,2.384185791015625000e-07
2.550926208496093750e-01,8.732080459594726562e-06,3.993511199951171875e-06,5.096197128295898438e-06,2.335906028747558594e-04,7.122755050659179688e-06
4.476308822631835938e-05,6.973743438720703125e-06,3.212690353393554688e-05,5.245208740234375000e-06,4.166364669799804688e-05,4.589557647705078125e-06
3.516674041748046875e-06,0.000000000000000000e+00,0.000000000000000000e+00,6.854534149169921875e-07,1.215934753417968750e-05,2.682209014892578125e-07
1.299381256103515625e-05,1.639127731323242188e-06,2.086162567138671875e-07,1.817941665649414062e-06,4.426836967468261719e-04,7.152557373046875000e-07
1.302361488342285156e-05,2.533197402954101562e-06,1.817941665649414062e-06,2.086162567138671875e-07,2.646446228027343750e-05,4.172325134277343750e-07
7.592439651489257812e-04,7.390975952148437500e-06,1.996755599975585938e-06,4.866719245910644531e-05,8.331537246704101562e-03,8.046627044677734375e-06
2.920627593994140625e-06,3.039836883544921875e-06,1.490116119384765625e-07,2.980232238769531250e-08,6.258487701416015625e-07,0.000000000000000000e+00
4.009753465652465820e-03,2.980232238769531250e-06,1.549720764160156250e-06,2.270638942718505859e-04,1.647949218750000000e-03,6.700064539909362793e-01
3.188848495483398438e-06,1.192092895507812500e-07,1.192092895507812500e-07,1.579523086547851562e-06,4.291534423828125000e-06,2.980232238769531250e-08
2.413988113403320312e-06,4.470348358154296875e-07,3.576278686523437500e-07,2.384185791015625000e-07,1.758337020874023438e-06,1.192092895507812500e-07
6.556510925292968750e-06,1.579523086547851562e-06,3.278255462646484375e-07,2.086162567138671875e-07,4.819035530090332031e-05,3.933906555175781250e-06
6.943941116333007812e-06,3.576278686523437500e-07,5.960464477539062500e-08,2.831220626831054688e-06,3.829598426818847656e-05,1.549720764160156250e-06
1.354515552520751953e-04,6.228685379028320312e-06,2.980232238769531250e-08,5.826354026794433594e-05,3.069639205932617188e-06,1.931786537170410156e-04
3.865361213684082031e-05,1.147389411926269531e-05,2.801418304443359375e-06,1.220703125000000000e-03,3.546476364135742188e-06,1.043081283569335938e-06
8.285045623779296875e-06,3.576278686523437500e-07,1.192092895507812500e-07,2.980232238769531250e-07,1.159310340881347656e-04,5.215406417846679688e-06
6.854534149169921875e-07,1.788139343261718750e-07,0.000000000000000000e+00,1.788139343261718750e-07,1.400709152221679688e-06,0.000000000000000000e+00
2.928972244262695312e-04,1.010298728942871094e-05,6.258487701416015625e-07,4.752874374389648438e-04,3.644824028015136719e-05,1.437962055206298828e-04
1.182556152343750000e-04,1.251697540283203125e-06,9.834766387939453125e-07,2.443790435791015625e-06,8.076429367065429688e-06,1.490116119384765625e-07
1.360639929771423340e-02,8.428096771240234375e-05,1.937150955200195312e-05,4.702806472778320312e-05,7.933591604232788086e-01,5.772709846496582031e-04
3.457069396972656250e-06,3.039836883544921875e-06,2.086162567138671875e-07,1.192092895507812500e-07,8.225440979003906250e-06,1.639127731323242188e-06
2.256947755813598633e-02,1.758635044097900391e-04,2.980232238769531250e-05,1.333862543106079102e-03,7.720494270324707031e-02,3.512203693389892578e-04
1.786947250366210938e-04,6.711483001708984375e-05,2.133846282958984375e-05,9.721994400024414062e-03,7.766485214233398438e-05,3.874301910400390625e-07
0.000000000000000000e+00,0.000000000000000000e+00,0.000000000000000000e+00,0.000000000000000000e+00,8.940696716308593750e-08,0.000000000000000000e+00
1.937150955200195312e-06,2.384185791015625000e-07,5.960464477539062500e-08,1.013278961181640625e-06,1.430511474609375000e-06,0.000000000000000000e+00
5.398667454719543457e-01,2.686262130737304688e-03,2.495110034942626953e-03,7.206201553344726562e-04,1.416295766830444336e-03,3.278255462646484375e-07
4.122167825698852539e-03,8.200801014900207520e-01,1.290869712829589844e-02,1.901388168334960938e-05,8.235584497451782227e-01,7.173120975494384766e-04
9.596347808837890625e-06,2.086162567138671875e-07,0.000000000000000000e+00,0.000000000000000000e+00,2.148747444152832031e-05,1.102685928344726562e-06
4.848837852478027344e-05,2.980232238769531250e-07,3.874301910400390625e-07,6.884336471557617188e-06,5.994141101837158203e-04,7.587800025939941406e-01
0.000000000000000000e+00,0.000000000000000000e+00,0.000000000000000000e+00,0.000000000000000000e+00,0.000000000000000000e+00,0.000000000000000000e+00
1.067817211151123047e-04,2.348423004150390625e-05,9.894371032714843750e-06,2.843588590621948242e-03,3.704428672790527344e-05,7.357895374298095703e-04
6.322779059410095215e-01,1.319944858551025391e-04,7.086992263793945312e-05,4.443526268005371094e-05,2.501368522644042969e-03,2.503395080566406250e-06
2.980232238769531250e-07,2.980232238769531250e-08,0.000000000000000000e+00,4.172325134277343750e-07,1.370906829833984375e-06,5.960464477539062500e-08
8.132159709930419922e-04,1.924425363540649414e-03,9.801983833312988281e-05,2.420195341110229492e-01,1.846641302108764648e-03,1.183152198791503906e-05
2.750754356384277344e-05,5.125999450683593750e-05,1.698732376098632812e-06,1.299783587455749512e-02,3.674626350402832031e-05,2.354383468627929688e-06
1.659393310546875000e-04,1.358985900878906250e-05,1.698732376098632812e-06,1.636147499084472656e-05,6.675720214843750000e-06,9.238719940185546875e-07
6.607770919799804688e-04,5.578994750976562500e-05,6.467103958129882812e-06,5.298852920532226562e-05,5.304813385009765625e-06,2.878904342651367188e-05
1.579523086547851562e-06,1.490116119384765625e-07,0.000000000000000000e+00,1.192092895507812500e-07,2.393126487731933594e-05,8.642673492431640625e-07
8.940696716308593750e-08,0.000000000000000000e+00,0.000000000000000000e+00,0.000000000000000000e+00,1.192092895507812500e-07,0.000000000000000000e+00
4.470348358154296875e-07,0.000000000000000000e+00,0.000000000000000000e+00,2.980232238769531250e-08,1.192092895507812500e-07,0.000000000000000000e+00
4.768371582031250000e-07,1.400709152221679688e-06,1.490116119384765625e-07,2.384185791015625000e-07,4.410743713378906250e-06,1.430511474609375000e-06
1.192092895507812500e-06,8.940696716308593750e-08,5.960464477539062500e-08,1.788139343261718750e-07,1.204013824462890625e-05,2.980232238769531250e-08
2.980232238769531250e-07,0.000000000000000000e+00,0.000000000000000000e+00,0.000000000000000000e+00,1.400709152221679688e-06,5.960464477539062500e-08
8.642673492431640625e-07,2.384185791015625000e-07,1.370906829833984375e-06,2.384185791015625000e-07,7.808208465576171875e-06,9.238719940185546875e-07
9.626150131225585938e-06,1.698732376098632812e-06,6.258487701416015625e-07,6.854534149169921875e-07,2.041459083557128906e-05,3.159046173095703125e-05
1.204013824462890625e-05,2.980232238769531250e-07,3.576278686523437500e-07,2.384185791015625000e-07,1.657009124755859375e-05,2.384185791015625000e-07
1.872777938842773438e-04,5.593777894973754883e-01,2.434313297271728516e-03,1.877546310424804688e-06,1.653105020523071289e-03,4.309147596359252930e-03
0.000000000000000000e+00,0.000000000000000000e+00,0.000000000000000000e+00,0.000000000000000000e+00,1.788139343261718750e-07,0.000000000000000000e+00
1.487135887145996094e-05,2.503395080566406250e-06,3.874301910400390625e-07,5.066394805908203125e-07,3.793835639953613281e-05,6.514787673950195312e-05
2.056658267974853516e-04,9.674131870269775391e-04,6.368756294250488281e-05,2.459328472614288330e-01,6.080865859985351562e-04,1.839101314544677734e-04
8.726119995117187500e-05,5.036592483520507812e-06,1.162290573120117188e-06,3.394484519958496094e-04,6.433129310607910156e-04,4.247207045555114746e-01
4.440546035766601562e-06,2.086162567138671875e-07,1.192092895507812500e-07,6.854534149169921875e-07,7.301568984985351562e-06,0.000000000000000000e+00
8.980631828308105469e-04,2.859830856323242188e-04,3.541409969329833984e-04,3.723800182342529297e-03,1.601547002792358398e-03,4.516869783401489258e-03
2.160668373107910156e-05,5.573034286499023438e-06,5.662441253662109375e-07,1.102685928344726562e-06,1.014471054077148438e-04,1.670122146606445312e-04
1.186132431030273438e-05,1.400709152221679688e-06,1.192092895507812500e-07,5.981028079986572266e-04,9.715557098388671875e-06,2.086162567138671875e-07
8.642673492431640625e-06,1.162290573120117188e-06,4.768371582031250000e-07,1.460313796997070312e-06,2.110004425048828125e-05,2.980232238769531250e-07
3.516674041748046875e-06,3.576278686523437500e-07,3.278255462646484375e-07,8.940696716308593750e-08,1.338124275207519531e-05,1.490116119384765625e-07
9.080767631530761719e-04,1.752883195877075195e-03,1.063942909240722656e-05,6.291648745536804199e-01,3.538131713867187500e-04,1.788139343261718750e-07
1.730620861053466797e-04,1.386106014251708984e-04,3.063678741455078125e-05,5.818009376525878906e-04,3.421902656555175781e-04,5.962133407592773438e-03
5.602836608886718750e-06,4.470348358154296875e-07,9.238719940185546875e-07,1.430511474609375000e-06,8.046627044677734375e-06,0.000000000000000000e+00
2.980232238769531250e-06,4.172325134277343750e-07,3.576278686523437500e-07,3.367662429809570312e-06,2.145767211914062500e-06,8.940696716308593750e-08
5.662441253662109375e-07,1.490116119384765625e-07,5.960464477539062500e-08,2.086162567138671875e-07,1.275539398193359375e-05,1.490116119384765625e-07
1.555681228637695312e-05,3.308057785034179688e-06,1.251697540283203125e-06,3.367662429809570312e-06,1.645088195800781250e-05,2.086162567138671875e-07
6.255507469177246094e-05,2.195626497268676758e-03,3.236383199691772461e-03,7.063150405883789062e-06,4.582107067108154297e-04,6.586313247680664062e-06
4.833295941352844238e-02,1.961013674736022949e-02,4.322230815887451172e-03,1.338049769401550293e-02,2.208280563354492188e-02,3.843495249748229980e-02
6.434321403503417969e-05,9.924173355102539062e-06,3.397464752197265625e-06,4.023909568786621094e-04,8.046627044677734375e-06,1.192092895507812500e-07
9.357929229736328125e-06,1.192092895507812500e-07,0.000000000000000000e+00,8.642673492431640625e-07,3.698468208312988281e-05,6.556510925292968750e-07
6.547570228576660156e-05,8.225440979003906250e-06,3.635883331298828125e-06,2.413988113403320312e-06,1.193284988403320312e-04,1.907348632812500000e-06
2.682209014892578125e-06,3.576278686523437500e-07,8.940696716308593750e-08,6.556510925292968750e-07,1.370906829833984375e-06,8.940696716308593750e-08
1.019239425659179688e-05,4.380941390991210938e-06,8.642673492431640625e-07,4.667043685913085938e-05,2.791285514831542969e-04,5.928671956062316895e-01
2.017617225646972656e-05,5.066394805908203125e-07,2.980232238769531250e-07,6.556510925292968750e-07,1.852810382843017578e-04,2.086162567138671875e-07
1.654028892517089844e-05,7.748603820800781250e-07,2.980232238769531250e-07,4.470348358154296875e-07,1.586675643920898438e-04,3.874301910400390625e-07
2.562999725341796875e-06,3.010034561157226562e-06,4.261732101440429688e-06,3.874301910400390625e-07,8.225440979003906250e-06,6.258487701416015625e-07
4.559755325317382812e-06,2.086162567138671875e-07,8.940696716308593750e-08,1.549720764160156250e-06,2.875924110412597656e-05,1.847743988037109375e-06
5.086284279823303223e-01,2.412348985671997070e-03,6.375551223754882812e-03,5.780458450317382812e-04,1.298946142196655273e-02,3.361701965332031250e-05
1.627206802368164062e-05,6.735324859619140625e-06,1.966953277587890625e-06,4.887580871582031250e-06,1.064240932464599609e-04,1.034140586853027344e-05
3.844499588012695312e-06,4.172325134277343750e-07,5.960464477539062500e-08,2.682209014892578125e-07,1.013278961181640625e-06,1.192092895507812500e-07
2.403110265731811523e-03,1.623779535293579102e-03,2.492070198059082031e-04,7.307529449462890625e-05,2.543300390243530273e-03,2.744793891906738281e-05
2.589821815490722656e-05,2.890825271606445312e-06,9.715557098388671875e-06,3.576278686523437500e-07,1.433491706848144531e-05,2.384185791015625000e-07
6.556510925292968750e-06,7.450580596923828125e-06,1.996755599975585938e-06,1.144260168075561523e-03,1.519918441772460938e-06,3.576278686523437500e-07
4.120171070098876953e-04,7.805185317993164062e-01,2.778559923171997070e-03,1.551210880279541016e-04,6.012022495269775391e-03,4.801877439022064209e-01
3.278255462646484375e-06,1.192092895507812500e-07,1.490116119384765625e-07,4.172325134277343750e-07,9.208917617797851562e-06,0.000000000000000000e+00
3.218650817871093750e-06,4.470348358154296875e-07,5.960464477539062500e-08,1.770257949829101562e-05,1.907348632812500000e-06,0.000000000000000000e+00
5.960464477539062500e-08,1.490116119384765625e-07,5.662441253662109375e-07,2.980232238769531250e-08,2.086162567138671875e-07,0.000000000000000000e+00
1.719594001770019531e-05,3.278255462646484375e-07,8.940696716308593750e-08,1.788139343261718750e-07,3.298819065093994141e-04,9.536743164062500000e-07
9.638965129852294922e-04,4.470348358154296875e-07,4.172325134277343750e-07,4.917383193969726562e-06,3.299117088317871094e-05,1.102685928344726562e-06
1.797080039978027344e-05,2.384185791015625000e-07,5.364418029785156250e-07,8.940696716308593750e-07,5.602836608886718750e-06,1.490116119384765625e-07
2.965331077575683594e-05,9.238719940185546875e-07,1.490116119384765625e-07,1.719594001770019531e-05,4.750490188598632812e-05,1.192092895507812500e-07
1.391768455505371094e-05,1.877546310424804688e-06,4.470348358154296875e-07,2.074241638183593750e-05,7.122755050659179688e-06,2.980232238769531250e-08
8.430093526840209961e-03,1.069054007530212402e-02,2.257227897644042969e-04,2.323389053344726562e-04,5.553662776947021484e-04,2.361834049224853516e-04
1.192092895507812500e-07,0.000000000000000000e+00,0.000000000000000000e+00,0.000000000000000000e+00,1.192092895507812500e-07,0.000000000000000000e+00
1.180619001388549805e-03,1.698732376098632812e-05,5.573034286499023438e-06,5.526840686798095703e-04,1.373887062072753906e-05,5.036592483520507812e-06
6.976723670959472656e-05,8.940696716308593750e-08,2.086162567138671875e-07,3.874301910400390625e-07,1.631152629852294922e-02,7.186437845230102539e-01
1.156628131866455078e-04,5.167722702026367188e-05,9.611248970031738281e-05,5.662441253662109375e-06,4.380941390991210938e-06,1.192092895507812500e-07
2.980232238769531250e-07,0.000000000000000000e+00,0.000000000000000000e+00,1.490116119384765625e-07,9.834766387939453125e-07,8.940696716308593750e-08
2.771615982055664062e-06,6.258487701416015625e-07,2.324581146240234375e-06,7.808208465576171875e-06,3.695487976074218750e-06,1.192092895507812500e-07
1.036977767944335938e-02,5.168616771697998047e-04,2.772441506385803223e-01,1.123845577239990234e-04,8.106180429458618164e-01,4.902482032775878906e-05
1.847743988037109375e-06,8.642673492431640625e-07,7.748603820800781250e-07,8.940696716308593750e-08,9.894371032714843750e-06,8.940696716308593750e-08
8.076429367065429688e-06,5.364418029785156250e-07,4.470348358154296875e-07,1.072883605957031250e-06,1.788139343261718750e-05,2.980232238769531250e-07
4.833638668060302734e-04,2.619922161102294922e-04,2.503395080566406250e-06,5.019605159759521484e-04,1.584291458129882812e-04,1.551091670989990234e-03
7.979571819305419922e-04,8.205761909484863281e-01,1.432749629020690918e-02,9.268522262573242188e-06,2.798169851303100586e-03,6.058812141418457031e-05
2.741813659667968750e-06,5.662441253662109375e-07,1.192092895507812500e-07,1.013278961181640625e-06,9.506940841674804688e-06,0.000000000000000000e+00
4.470348358154296875e-05,3.337860107421875000e-06,8.404254913330078125e-06,1.877546310424804688e-06,3.897249698638916016e-04,2.118945121765136719e-04
4.243850708007812500e-05,1.847743988037109375e-06,1.192092895507812500e-07,2.357363700866699219e-05,2.821981906890869141e-04,7.335259914398193359e-01
1.994669437408447266e-04,4.083812236785888672e-04,8.218308687210083008e-01,3.036856651306152344e-05,4.352927207946777344e-04,1.102685928344726562e-05
3.278255462646484375e-07,2.086162567138671875e-07,1.490116119384765625e-07,2.086162567138671875e-07,1.102685928344726562e-06,2.980232238769531250e-08
8.569061756134033203e-04,3.744244575500488281e-03,6.642937660217285156e-05,3.657090663909912109e-01,3.720521926879882812e-04,3.471970558166503906e-05
5.066394805908203125e-07,8.940696716308593750e-08,0.000000000000000000e+00,1.311302185058593750e-06,1.549720764160156250e-06,1.788139343261718750e-07
1.192092895507812500e-07,0.000000000000000000e+00,0.000000000000000000e+00,2.980232238769531250e-08,1.788139343261718750e-07,0.000000000000000000e+00
2.434313297271728516e-03,1.732110977172851562e-04,7.404056191444396973e-01,9.230375289916992188e-04,3.613293170928955078e-03,4.195272922515869141e-04
1.430511474609375000e-06,9.238719940185546875e-07,1.788139343261718750e-07,0.000000000000000000e+00,1.740455627441406250e-05,7.301568984985351562e-06
1.851618289947509766e-04,8.149371743202209473e-01,2.312004566192626953e-03,5.632638931274414062e-06,1.078933477401733398e-03,1.537799835205078125e-05
2.145916223526000977e-03,4.795491695404052734e-04,2.983510494232177734e-04,1.534819602966308594e-05,6.501738429069519043e-01,3.711670637130737305e-03
2.006560564041137695e-03,5.255322456359863281e-01,1.069068908691406250e-03,4.902482032775878906e-05,1.298266649246215820e-01,2.920627593994140625e-06
2.101063728332519531e-05,1.311302185058593750e-06,5.066394805908203125e-07,6.616115570068359375e-06,6.705522537231445312e-04,7.338353395462036133e-01
1.460313796997070312e-05,6.020069122314453125e-06,8.642673492431640625e-07,3.278255462646484375e-07,2.533197402954101562e-05,5.340576171875000000e-05
9.094506502151489258e-03,1.124441623687744141e-04,1.333355903625488281e-04,3.906786441802978516e-04,2.163092195987701416e-01,4.170536994934082031e-04
1.570582389831542969e-05,2.652406692504882812e-05,5.066394805908203125e-07,6.574749946594238281e-03,3.907084465026855469e-05,1.552140712738037109e-02
6.198883056640625000e-06,6.143152713775634766e-04,9.536743164062500000e-07,1.013278961181640625e-06,3.072619438171386719e-05,3.784894943237304688e-06
2.619624137878417969e-05,2.980232238769531250e-07,4.172325134277343750e-07,1.490116119384765625e-07,6.049871444702148438e-06,5.960464477539062500e-08
1.239776611328125000e-05,2.026557922363281250e-06,2.086162567138671875e-07,2.086162567138671875e-07,1.120299100875854492e-03,5.662441253662109375e-07
3.904104232788085938e-06,2.086162567138671875e-07,2.980232238769531250e-08,0.000000000000000000e+00,5.930662155151367188e-05,3.576278686523437500e-07
2.518296241760253906e-05,4.827976226806640625e-06,1.609325408935546875e-06,6.067752838134765625e-05,1.255869865417480469e-04,4.768371582031250000e-07
1.364350318908691406e-04,1.489818096160888672e-04,2.229213714599609375e-05,3.487795591354370117e-03,4.884600639343261719e-05,3.552138805389404297e-04
3.486871719360351562e-06,8.046627044677734375e-07,2.086162567138671875e-07,1.549720764160156250e-06,1.609325408935546875e-05,2.980232238769531250e-08
2.143383026123046875e-03,5.364953279495239258e-01,6.167054176330566406e-03,2.071261405944824219e-05,3.489553928375244141e-04,3.260374069213867188e-05
1.538395881652832031e-04,5.262792110443115234e-04,1.317262649536132812e-05,1.526176929473876953e-04,6.869435310363769531e-05,1.043081283569335938e-06
1.022219657897949219e-05,3.188848495483398438e-05,5.662441253662109375e-06,2.682209014892578125e-07,1.800060272216796875e-05,6.645917892456054688e-06
8.773803710937500000e-05,1.490116119384765625e-06,1.668930053710937500e-06,7.241964340209960938e-06,3.457069396972656250e-06,5.960464477539062500e-08
1.077055931091308594e-04,6.169080734252929688e-06,1.907348632812500000e-06,1.043081283569335938e-06,1.455247402191162109e-04,1.788139343261718750e-07
2.637505531311035156e-05,8.493661880493164062e-06,3.814697265625000000e-06,5.066394805908203125e-07,1.941621303558349609e-04,1.281499862670898438e-06
1.016259193420410156e-05,2.086162567138671875e-07,1.490116119384765625e-07,6.854534149169921875e-07,8.761882781982421875e-06,1.192092895507812500e-07
3.308057785034179688e-06,2.264976501464843750e-06,3.278255462646484375e-07,1.192092895507812500e-07,1.242756843566894531e-05,8.940696716308593750e-08
1.440048217773437500e-03,3.427267074584960938e-05,8.473435044288635254e-01,1.353025436401367188e-05,7.418692111968994141e-04,4.914644360542297363e-02
4.082918167114257812e-06,1.609325408935546875e-06,5.960464477539062500e-07,7.361173629760742188e-06,2.264976501464843750e-06,0.000000000000000000e+00
1.251995563507080078e-04,3.486871719360351562e-06,1.043081283569335938e-06,8.046627044677734375e-07,3.218650817871093750e-04,3.635883331298828125e-06
1.182857155799865723e-02,7.103443145751953125e-03,4.509091377258300781e-05,6.069671511650085449e-01,2.431839704513549805e-03,7.748603820800781250e-07
4.172325134277343750e-07,2.980232238769531250e-08,8.940696716308593750e-08,0.000000000000000000e+00,1.251697540283203125e-06,2.980232238769531250e-08
3.731250762939453125e-05,2.473592758178710938e-06,1.460313796997070312e-06,1.593232154846191406e-04,2.285838127136230469e-05,7.271766662597656250e-06
1.380354166030883789e-03,1.721680164337158203e-04,7.838010787963867188e-06,7.678270339965820312e-04,5.644559860229492188e-05,7.676780223846435547e-04
3.397464752197265625e-06,3.576278686523437500e-07,0.000000000000000000e+00,1.609325408935546875e-06,4.112720489501953125e-06,1.490116119384765625e-07
1.102685928344726562e-06,1.788139343261718750e-07,1.192092895507812500e-07,3.278255462646484375e-07,8.165836334228515625e-06,8.642673492431640625e-07
3.528296947479248047e-04,1.162290573120117188e-06,1.788139343261718750e-07,4.768371582031250000e-07,1.367926597595214844e-05,9.536743164062500000e-07
1.588463783264160156e-05,2.187490463256835938e-05,1.192092895507812500e-06,2.980232238769531250e-07,3.446936607360839844e-04,5.453824996948242188e-06
4.117488861083984375e-04,6.198883056640625000e-06,3.367662429809570312e-06,7.569789886474609375e-06,1.391768455505371094e-05,7.748603820800781250e-07
5.496740341186523438e-04,1.053988933563232422e-03,7.234835028648376465e-01,5.751848220825195312e-06,1.775443553924560547e-03,1.013576984405517578e-04
4.077851772308349609e-04,6.431341171264648438e-05,7.838010787963867188e-06,4.024058580398559570e-03,6.869435310363769531e-05,8.642673492431640625e-07
1.788139343261718750e-07,8.940696716308593750e-08,2.980232238769531250e-08,8.940696716308593750e-08,1.642107963562011719e-05,2.682209014892578125e-07
8.553266525268554688e-06,7.152557373046875000e-07,0.000000000000000000e+00,9.834766387939453125e-07,9.834766387939453125e-07,2.980232238769531250e-08
9.238719940185546875e-06,3.159046173095703125e-06,6.258487701416015625e-07,2.223253250122070312e-05,2.476572990417480469e-05,2.086162567138671875e-07
8.035600185394287109e-04,8.076429367065429688e-06,2.622604370117187500e-06,3.516674041748046875e-06,1.822412014007568359e-04,1.072883605957031250e-06
3.784894943237304688e-06,3.278255462646484375e-07,1.490116119384765625e-07,8.416175842285156250e-05,6.407499313354492188e-06,0.000000000000000000e+00
7.575213909149169922e-03,6.394592523574829102e-01,2.578929066658020020e-02,2.276897430419921875e-04,8.065491914749145508e-03,1.513659954071044922e-04
1.662969589233398438e-05,5.364418029785156250e-07,5.960464477539062500e-08,1.490116119384765625e-07,7.748603820800781250e-07,5.960464477539062500e-08
1.770257949829101562e-05,9.238719940185546875e-07,5.960464477539062500e-08,1.153349876403808594e-05,2.892613410949707031e-04,7.564414739608764648e-01
5.361437797546386719e-05,4.768371582031250000e-07,1.192092895507812500e-07,2.682209014892578125e-07,1.227855682373046875e-05,0.000000000000000000e+00
1.040101051330566406e-05,1.817941665649414062e-06,2.384185791015625000e-07,4.667043685913085938e-05,1.579225063323974609e-04,2.062475383281707764e-01
4.589557647705078125e-06,2.682209014892578125e-07,5.960464477539062500e-08,1.490116119384765625e-07,1.266598701477050781e-05,8.642673492431640625e-07
3.486871719360351562e-06,2.980232238769531250e-08,0.000000000000000000e+00,1.192092895507812500e-07,7.718801498413085938e-06,1.490116119384765625e-07
6.543216109275817871e-02,1.839309930801391602e-03,1.120865345001220703e-04,9.733527898788452148e-03,2.528364360332489014e-01,7.344782352447509766e-04
2.428293228149414062e-04,3.489851951599121094e-05,8.314847946166992188e-06,3.060698509216308594e-05,3.359019756317138672e-04,5.751848220825195312e-06
4.976987838745117188e-06,1.281499862670898438e-06,3.576278686523437500e-07,5.066394805908203125e-06,3.188848495483398438e-05,1.788139343261718750e-07
7.271766662597656250e-06,4.768371582031250000e-07,1.788139343261718750e-07,1.490116119384765625e-07,5.513429641723632812e-06,2.086162567138671875e-07
2.682209014892578125e-07,2.980232238769531250e-08,0.000000000000000000e+00,0.000000000000000000e+00,2.980232238769531250e-07,0.000000000000000000e+00
3.346793651580810547e-01,5.960464477539062500e-05,2.941489219665527344e-05,2.792477607727050781e-05,1.064747571945190430e-03,9.566545486450195312e-06
2.971291542053222656e-05,1.251697540283203125e-06,1.043081283569335938e-06,1.430511474609375000e-06,2.260893583297729492e-03,3.576278686523437500e-07
2.282104194164276123e-01,5.078144669532775879e-01,3.347575664520263672e-03,1.821765303611755371e-02,2.736629843711853027e-01,1.229941844940185547e-04
5.781650543212890625e-06,1.788139343261718750e-07,8.940696716308593750e-08,4.470348358154296875e-07,3.516674041748046875e-06,5.960464477539062500e-08
1.465529203414916992e-03,6.520748138427734375e-05,6.228685379028320312e-06,1.128911972045898438e-04,1.401722431182861328e-03,3.513693809509277344e-05
2.402067184448242188e-05,4.947185516357421875e-06,1.221895217895507812e-06,1.121342182159423828e-03,1.412630081176757812e-05,5.662441253662109375e-07
9.715557098388671875e-06,5.692243576049804688e-06,1.311302185058593750e-06,2.175569534301757812e-06,5.546212196350097656e-05,3.635883331298828125e-06
5.066394805908203125e-07,2.980232238769531250e-08,0.000000000000000000e+00,1.490116119384765625e-07,2.801418304443359375e-06,2.980232238769531250e-08
2.205371856689453125e-06,1.490116119384765625e-07,1.788139343261718750e-07,3.278255462646484375e-07,3.576278686523437500e-07,2.980232238769531250e-08
9.179115295410156250e-06,2.086162567138671875e-07,0.000000000000000000e+00,0.000000000000000000e+00,1.490116119384765625e-07,0.000000000000000000e+00
5.031228065490722656e-04,2.061128616333007812e-04,3.531575202941894531e-05,1.986026763916015625e-04,1.690495014190673828e-02,5.385228395462036133e-01
2.418458461761474609e-04,4.078894853591918945e-03,8.627772331237792969e-05,6.139278411865234375e-06,9.208226203918457031e-01,4.965066909790039062e-04
2.402067184448242188e-05,1.072883605957031250e-06,1.996755599975585938e-06,1.428127288818359375e-04,6.586313247680664062e-06,2.324581146240234375e-06
1.302361488342285156e-05,1.120567321777343750e-05,2.115964889526367188e-06,1.808136701583862305e-03,3.010034561157226562e-06,4.768371582031250000e-07
5.394220352172851562e-06,1.788139343261718750e-07,0.000000000000000000e+00,8.344650268554687500e-07,5.722045898437500000e-06,0.000000000000000000e+00
7.830858230590820312e-04,2.354383468627929688e-05,9.238719940185546875e-07,1.814365386962890625e-04,1.202523708343505859e-04,1.320958137512207031e-03
2.005696296691894531e-05,8.344650268554687500e-07,7.152557373046875000e-07,6.705522537231445312e-06,1.011788845062255859e-04,5.960464477539062500e-08
1.192092895507812500e-06,4.768371582031250000e-07,1.192092895507812500e-07,9.238719940185546875e-07,3.874301910400390625e-07,0.000000000000000000e+00
2.583861351013183594e-05,6.556510925292968750e-06,3.725290298461914062e-06,3.883838653564453125e-04,1.481175422668457031e-05,1.937150955200195312e-06
4.947304725646972656e-03,5.435973405838012695e-03,2.894699573516845703e-04,1.046657562255859375e-04,7.557837367057800293e-01,4.897713661193847656e-04
1.498162746429443359e-04,1.102685928344726562e-06,1.788139343261718750e-07,9.536743164062500000e-07,7.212162017822265625e-05,3.278255462646484375e-07
4.029572010040283203e-04,1.059770584106445312e-04,8.820621967315673828e-01,7.033348083496093750e-06,6.975173950195312500e-03,2.334713935852050781e-04
1.969933509826660156e-05,3.874301910400390625e-07,3.576278686523437500e-07,4.324316978454589844e-05,5.534291267395019531e-05,5.066394805908203125e-07
2.384185791015625000e-06,1.192092895507812500e-07,2.980232238769531250e-08,1.043081283569335938e-06,2.774596214294433594e-05,2.086162567138671875e-07
7.963776588439941406e-04,1.144409179687500000e-04,1.296401023864746094e-05,9.619593620300292969e-04,9.942054748535156250e-05,3.455281257629394531e-04
8.573830127716064453e-04,4.913449287414550781e-03,1.523792743682861328e-04,5.089991688728332520e-01,1.698136329650878906e-03,5.173683166503906250e-05
3.050565719604492188e-04,2.230197191238403320e-03,6.568431854248046875e-05,4.593604803085327148e-01,1.594871282577514648e-03,3.188848495483398438e-06
1.937150955200195312e-05,2.256035804748535156e-05,2.580881118774414062e-05,2.974271774291992188e-05,1.776218414306640625e-05,1.817941665649414062e-06
2.672672271728515625e-04,1.592636108398437500e-04,1.564621925354003906e-05,1.012980937957763672e-03,1.296609640121459961e-03,5.413696765899658203e-01
1.004636287689208984e-04,1.984834671020507812e-05,1.192092895507812500e-07,1.552700996398925781e-05,1.120567321777343750e-05,3.200769424438476562e-05
3.132224082946777344e-05,1.043081283569335938e-06,3.576278686523437500e-07,2.086162567138671875e-07,2.821683883666992188e-04,1.579523086547851562e-06
3.499090671539306641e-04,1.406669616699218750e-05,8.962165117263793945e-01,5.662441253662109375e-07,2.956688404083251953e-04,3.904104232788085938e-05
1.519918441772460938e-06,2.086162567138671875e-07,8.940696716308593750e-08,5.066394805908203125e-07,1.338124275207519531e-05,1.192092895507812500e-07
4.172325134277343750e-06,4.172325134277343750e-07,2.384185791015625000e-07,1.886785030364990234e-04,4.261732101440429688e-06,1.490116119384765625e-07
1.165270805358886719e-05,2.086162567138671875e-07,8.940696716308593750e-08,9.536743164062500000e-07,6.681680679321289062e-05,1.758337020874023438e-06
2.473592758178710938e-06,1.788139343261718750e-07,1.788139343261718750e-07,1.311302185058593750e-06,2.026557922363281250e-06,0.000000000000000000e+00
4.523992538452148438e-05,1.341104507446289062e-06,3.576278686523437500e-07,9.536743164062500000e-07,1.853406429290771484e-04,2.682209014892578125e-07
3.260374069213867188e-05,1.156330108642578125e-05,3.397464752197265625e-06,6.015896797180175781e-04,1.800060272216796875e-05,2.980232238769531250e-07
1.018345355987548828e-04,9.953975677490234375e-06,2.712011337280273438e-06,6.566941738128662109e-04,1.683831214904785156e-05,1.490116119384765625e-07
1.969933509826660156e-05,9.715557098388671875e-06,2.324581146240234375e-06,1.079410314559936523e-03,3.099441528320312500e-06,1.788139343261718750e-07
9.536743164062500000e-07,2.980232238769531250e-08,0.000000000000000000e+00,2.980232238769531250e-07,1.937150955200195312e-06,8.940696716308593750e-08
1.732016205787658691e-01,1.157522201538085938e-04,7.994782924652099609e-01,1.182258129119873047e-04,2.057015895843505859e-03,4.246830940246582031e-05
2.384185791015625000e-06,3.874301910400390625e-07,8.940696716308593750e-08,6.258487701416015625e-07,6.508827209472656250e-05,1.192092895507812500e-07
0.000000000000000000e+00,0.000000000000000000e+00,0.000000000000000000e+00,5.960464477539062500e-08,1.192092895507812500e-07,0.000000000000000000e+00
2.536177635192871094e-05,6.467103958129882812e-06,2.086162567138671875e-06,2.580881118774414062e-05,2.307593822479248047e-04,5.417510867118835449e-02
3.953576087951660156e-04,4.785358905792236328e-04,1.773238182067871094e-05,1.011257767677307129e-01,3.106594085693359375e-04,1.078844070434570312e-05
1.677870750427246094e-05,9.238719940185546875e-07,0.000000000000000000e+00,3.129243850708007812e-06,5.465745925903320312e-05,4.678964614868164062e-06
1.212954521179199219e-05,1.058578491210937500e-04,2.643465995788574219e-05,1.012355089187622070e-03,3.871321678161621094e-05,4.768371582031250000e-07
1.822113990783691406e-04,4.148483276367187500e-05,4.479289054870605469e-05,3.948807716369628906e-05,2.154707908630371094e-05,1.609325408935546875e-06
1.013278961181640625e-06,0.000000000000000000e+00,0.000000000000000000e+00,5.960464477539062500e-08,5.751848220825195312e-06,5.662441253662109375e-07
6.705522537231445312e-06,2.950429916381835938e-06,6.258487701416015625e-07,2.414286136627197266e-04,2.115964889526367188e-05,5.364418029785156250e-07
9.903311729431152344e-05,1.072883605957031250e-06,3.099441528320312500e-06,2.056360244750976562e-06,1.341104507446289062e-05,1.192092895507812500e-07
5.066394805908203125e-07,8.940696716308593750e-08,0.000000000000000000e+00,0.000000000000000000e+00,1.877546310424804688e-06,8.940696716308593750e-08
5.263090133666992188e-05,6.616115570068359375e-06,1.877546310424804688e-06,5.110204219818115234e-04,1.126527786254882812e-05,1.639127731323242188e-06
1.267853975296020508e-01,7.025203108787536621e-01,1.879566907882690430e-02,2.755522727966308594e-04,1.245975494384765625e-03,1.105666160583496094e-05
5.483627319335937500e-06,7.515549659729003906e-04,1.835823059082031250e-05,7.152557373046875000e-07,1.130402088165283203e-04,5.570054054260253906e-05
1.625180244445800781e-03,1.150369644165039062e-05,4.529953002929687500e-06,1.579523086547851562e-05,5.408525466918945312e-04,1.400709152221679688e-06
3.278255462646484375e-07,2.980232238769531250e-08,0.000000000000000000e+00,0.000000000000000000e+00,5.662441253662109375e-07,2.980232238769531250e-08
2.560585737228393555e-03,8.430361747741699219e-03,1.092851161956787109e-04,1.941388845443725586e-02,2.942934632301330566e-02,7.959038019180297852e-03
8.642673492431640625e-07,2.384185791015625000e-07,1.788139343261718750e-07,1.162290573120117188e-06,3.218650817871093750e-06,1.490116119384765625e-07
4.019141197204589844e-04,6.881356239318847656e-05,8.642673492431640625e-07,6.817281246185302734e-04,2.214580774307250977e-03,3.809607625007629395e-01
2.780556678771972656e-05,1.490116119384765625e-07,3.576278686523437500e-07,2.980232238769531250e-07,3.635883331298828125e-06,2.682209014892578125e-07
0.000000000000000000e+00,0.000000000000000000e+00,0.000000000000000000e+00,0.000000000000000000e+00,4.470348358154296875e-07,0.000000000000000000e+00
2.473592758178710938e-05,4.529953002929687500e-06,3.576278686523437500e-07,7.748603820800781250e-07,1.859843730926513672e-03,2.026557922363281250e-06
3.191828727722167969e-05,7.337331771850585938e-05,5.125999450683593750e-06,4.172325134277343750e-07,4.512071609497070312e-05,1.549720764160156250e-06
1.787960529327392578e-03,7.298474311828613281e-01,1.564681529998779297e-03,1.178979873657226562e-04,3.077149391174316406e-03,7.191300392150878906e-05
1.370906829833984375e-06,2.682209014892578125e-06,2.682209014892578125e-07,3.874301910400390625e-07,2.875924110412597656e-05,1.788139343261718750e-07
1.668930053710937500e-06,5.662441253662109375e-07,5.662441253662109375e-07,1.788139343261718750e-07,3.874301910400390625e-06,1.192092895507812500e-07
6.258487701416015625e-07,8.940696716308593750e-08,0.000000000000000000e+00,4.768371582031250000e-07,1.281499862670898438e-06,1.192092895507812500e-07
8.046627044677734375e-07,2.086162567138671875e-07,0.000000000000000000e+00,1.490116119384765625e-07,4.738569259643554688e-06,0.000000000000000000e+00
0.000000000000000000e+00,2.980232238769531250e-08,0.000000000000000000e+00,5.960464477539062500e-08,1.281499862670898438e-06,5.960464477539062500e-08
5.140900611877441406e-05,1.221895217895507812e-06,1.192092895507812500e-07,1.055002212524414062e-05,3.204047679901123047e-04,2.086162567138671875e-07
7.033348083496093750e-06,7.450580596923828125e-07,4.172325134277343750e-07,6.803870201110839844e-05,2.861022949218750000e-06,1.788139343261718750e-07
1.145454943180084229e-01,8.099816441535949707e-01,1.967263221740722656e-02,2.956374883651733398e-01,1.469430327415466309e-02,8.642673492431640625e-07
2.982616424560546875e-04,1.788139343261718750e-07,1.490116119384765625e-07,6.258487701416015625e-07,3.659725189208984375e-05,2.086162567138671875e-07
1.072883605957031250e-06,4.172325134277343750e-07,0.000000000000000000e+00,1.078844070434570312e-05,2.479553222656250000e-05,4.470348358154296875e-07
5.435347557067871094e-04,8.813112974166870117e-03,8.612871170043945312e-06,2.772808074951171875e-04,5.890965461730957031e-03,4.447261989116668701e-01
2.342462539672851562e-05,6.854534149169921875e-07,2.384185791015625000e-07,6.854534149169921875e-07,6.464123725891113281e-05,2.920627593994140625e-06
2.637505531311035156e-05,1.668930053710937500e-06,1.788139343261718750e-07,3.784894943237304688e-06,2.628564834594726562e-05,1.252591609954833984e-04
1.653283834457397461e-03,6.416440010070800781e-05,6.136298179626464844e-05,1.860857009887695312e-04,8.108913898468017578e-03,1.743435859680175781e-05
1.639127731323242188e-06,2.086162567138671875e-07,4.768371582031250000e-07,8.940696716308593750e-08,6.258487701416015625e-06,1.490116119384765625e-07
1.311302185058593750e-06,5.960464477539062500e-08,8.940696716308593750e-08,0.000000000000000000e+00,4.023313522338867188e-06,0.000000000000000000e+00
1.370906829833984375e-06,5.960464477539062500e-08,2.682209014892578125e-07,2.980232238769531250e-08,2.622604370117187500e-06,1.490116119384765625e-07
5.662441253662109375e-07,0.000000000000000000e+00,0.000000000000000000e+00,0.000000000000000000e+00,1.996755599975585938e-06,0.000000000000000000e+00
1.192092895507812500e-07,2.980232238769531250e-08,2.980232238769531250e-08,0.000000000000000000e+00,9.536743164062500000e-07,0.000000000000000000e+00
2.250075340270996094e-04,6.794929504394531250e-06,1.788139343261718750e-07,3.308057785034179688e-06,6.484985351562500000e-05,3.635883331298828125e-06
3.051757812500000000e-05,2.086162567138671875e-07,0.000000000000000000e+00,1.221895217895507812e-06,4.261732101440429688e-06,8.642673492431640625e-07
1.012384891510009766e-04,8.821487426757812500e-06,3.516674041748046875e-06,1.788139343261718750e-07,5.185604095458984375e-06,6.586313247680664062e-06
9.112656116485595703e-03,2.098083496093750000e-04,3.914833068847656250e-04,5.662441253662109375e-07,4.842877388000488281e-05,2.324581146240234375e-06
5.960464477539062500e-07,2.384185791015625000e-07,6.258487701416015625e-07,0.000000000000000000e+00,1.102685928344726562e-06,2.980232238769531250e-07
5.492269992828369141e-04,5.120038986206054688e-05,1.573562622070312500e-05,1.105666160583496094e-05,2.383291721343994141e-04,2.086162567138671875e-07
9.256601333618164062e-05,2.110004425048828125e-05,2.282857894897460938e-05,3.039836883544921875e-06,7.119774818420410156e-05,3.576278686523437500e-06
2.188798785209655762e-02,5.978077650070190430e-03,9.229779243469238281e-05,3.760464191436767578e-01,5.945956707000732422e-02,4.839926958084106445e-03
2.037385106086730957e-02,3.188848495483398438e-06,2.980232238769531250e-06,1.040101051330566406e-05,4.760043323040008545e-01,6.532220244407653809e-01
1.892447471618652344e-05,3.784894943237304688e-06,2.652406692504882812e-06,2.121925354003906250e-05,1.453757286071777344e-04,1.385807991027832031e-05
4.397243261337280273e-03,4.261732101440429688e-06,1.639127731323242188e-06,8.076429367065429688e-06,5.248188972473144531e-05,1.192092895507812500e-07
1.788139343261718750e-07,0.000000000000000000e+00,0.000000000000000000e+00,5.960464477539062500e-08,6.258487701416015625e-07,0.000000000000000000e+00
3.695905208587646484e-03,2.168804407119750977e-03,1.836717128753662109e-04,3.697946667671203613e-02,1.879569888114929199e-02,3.435939550399780273e-03
2.086162567138671875e-07,2.086162567138671875e-07,8.940696716308593750e-08,8.940696716308593750e-08,1.341104507446289062e-06,0.000000000000000000e+00
4.470348358154296875e-07,8.940696716308593750e-08,0.000000000000000000e+00,2.980232238769531250e-08,4.976987838745117188e-06,0.000000000000000000e+00
1.966953277587890625e-06,1.490116119384765625e-07,2.980232238769531250e-08,5.960464477539062500e-08,1.698732376098632812e-06,8.940696716308593750e-08
2.992153167724609375e-05,2.682209014892578125e-07,2.980232238769531250e-07,7.152557373046875000e-07,1.037716865539550781e-04,1.341104507446289062e-06
4.053115844726562500e-06,8.940696716308593750e-08,0.000000000000000000e+00,5.960464477539062500e-08,7.957220077514648438e-06,1.192092895507812500e-07
7.881417870521545410e-02,2.285838127136230469e-05,1.040101051330566406e-05,3.388524055480957031e-05,2.945363521575927734e-04,1.788139343261718750e-06
3.087520599365234375e-05,1.531541347503662109e-04,1.330971717834472656e-04,1.275539398193359375e-05,1.153349876403808594e-04,6.750226020812988281e-05
6.861567497253417969e-03,2.178549766540527344e-05,1.186132431030273438e-05,1.004934310913085938e-04,1.101404428482055664e-03,8.851289749145507812e-06
6.526708602905273438e-06,1.192092895507812500e-07,2.980232238769531250e-08,8.642673492431640625e-07,1.583006978034973145e-02,7.544595003128051758e-01
5.781650543212890625e-06,7.748603820800781250e-07,1.192092895507812500e-07,4.470348358154296875e-07,2.905726432800292969e-05,1.081824302673339844e-05
7.539987564086914062e-06,2.622604370117187500e-06,2.980232238769531250e-07,3.257393836975097656e-05,1.248717308044433594e-05,0.000000000000000000e+00
1.268333196640014648e-02,6.850384473800659180e-01,5.625936388969421387e-02,4.323318600654602051e-02,2.739855647087097168e-02,5.561113357543945312e-05
4.470348358154296875e-07,8.940696716308593750e-08,2.980232238769531250e-08,3.576278686523437500e-07,1.579523086547851562e-06,0.000000000000000000e+00
4.222989082336425781e-05,1.037120819091796875e-05,9.536743164062500000e-07,9.276568889617919922e-04,1.156330108642578125e-05,1.192092895507812500e-07
3.367662429809570312e-06,1.788139343261718750e-07,0.000000000000000000e+00,8.940696716308593750e-07,4.464387893676757812e-05,1.490116119384765625e-07
2.148568630218505859e-03,7.458209395408630371e-01,1.944819092750549316e-02,5.632638931274414062e-06,1.355201005935668945e-03,9.733438491821289062e-05
4.920089244842529297e-02,1.853784918785095215e-01,1.792788505554199219e-03,1.861453056335449219e-03,8.502900600433349609e-04,3.039836883544921875e-06
5.900859832763671875e-06,1.577556133270263672e-03,6.648898124694824219e-05,1.102685928344726562e-06,3.868341445922851562e-05,6.467103958129882812e-06
2.264976501464843750e-06,3.069639205932617188e-06,5.066394805908203125e-07,1.192092895507812500e-07,1.698732376098632812e-06,5.960464477539062500e-08
1.910328865051269531e-04,2.473592758178710938e-05,3.558397293090820312e-05,4.747509956359863281e-05,2.722740173339843750e-04,3.689527511596679688e-05
4.351139068603515625e-06,1.490116119384765625e-07,2.980232238769531250e-08,0.000000000000000000e+00,5.015730857849121094e-05,2.086162567138671875e-07
3.386527299880981445e-03,8.448008298873901367e-01,7.386952638626098633e-03,2.467919588088989258e-01,1.618057489395141602e-03,1.490116119384765625e-07
9.980797767639160156e-05,3.844499588012695312e-06,9.626150131225585938e-06,6.088614463806152344e-05,6.929039955139160156e-05,3.427267074584960938e-06
8.344650268554687500e-07,2.086162567138671875e-07,2.086162567138671875e-07,8.344650268554687500e-07,8.344650268554687500e-07,0.000000000000000000e+00
1.802146434783935547e-04,4.440546035766601562e-06,5.006790161132812500e-06,1.469254493713378906e-05,2.363324165344238281e-05,1.192092895507812500e-07
1.117587089538574219e-05,2.324581146240234375e-06,2.592802047729492188e-06,5.960464477539062500e-07,7.331371307373046875e-06,7.152557373046875000e-07
3.278255462646484375e-07,0.000000000000000000e+00,0.000000000000000000e+00,0.000000000000000000e+00,1.528859138488769531e-05,0.000000000000000000e+00
1.042485237121582031e-04,7.718801498413085938e-04,4.172325134277343750e-06,5.036709308624267578e-01,7.110834121704101562e-05,2.980232238769531250e-08
2.525648474693298340e-02,5.394220352172851562e-06,2.294778823852539062e-06,5.483627319335937500e-06,1.237392425537109375e-04,1.966953277587890625e-06
5.841255187988281250e-06,6.854534149169921875e-07,2.086162567138671875e-07,1.102685928344726562e-06,6.601214408874511719e-05,9.536743164062500000e-07
1.279413700103759766e-04,8.276104927062988281e-05,9.238719940185546875e-06,5.278587341308593750e-04,1.591205596923828125e-03,2.964237332344055176e-01
7.565021514892578125e-04,2.472579479217529297e-03,1.963973045349121094e-05,6.406978964805603027e-01,4.986226558685302734e-04,8.940696716308593750e-08
6.872415542602539062e-05,8.535945415496826172e-01,1.602977514266967773e-03,2.592802047729492188e-06,4.357695579528808594e-04,8.404254913330078125e-06
1.754850149154663086e-03,3.874301910400390625e-07,1.192092895507812500e-07,3.427267074584960938e-06,1.952350139617919922e-04,8.970499038696289062e-06
6.258487701416015625e-07,6.854534149169921875e-07,1.490116119384765625e-07,5.960464477539062500e-08,6.586313247680664062e-06,8.940696716308593750e-08
1.187294721603393555e-03,4.124641418457031250e-05,1.272559165954589844e-05,3.752112388610839844e-05,6.845593452453613281e-05,3.242492675781250000e-05
3.576278686523437500e-06,0.000000000000000000e+00,0.000000000000000000e+00,2.682209014892578125e-07,3.616809844970703125e-04,8.228311538696289062e-01
2.250075340270996094e-05,1.281499862670898438e-06,1.192092895507812500e-07,2.890825271606445312e-06,1.798272132873535156e-04,4.053115844726562500e-06
2.099275588989257812e-04,9.122192859649658203e-04,5.614757537841796875e-05,7.186689972877502441e-02,2.920329570770263672e-04,1.141428947448730469e-05
8.818507194519042969e-05,2.175569534301757812e-06,7.748603820800781250e-07,1.111626625061035156e-05,2.165734767913818359e-04,3.457069396972656250e-06
1.539885997772216797e-04,1.819133758544921875e-04,3.650784492492675781e-05,4.678964614868164062e-06,1.263618469238281250e-05,5.066394805908203125e-07
4.768371582031250000e-07,1.192092895507812500e-07,1.192092895507812500e-07,1.192092895507812500e-07,2.682209014892578125e-07,0.000000000000000000e+00
2.875685691833496094e-02,7.465481758117675781e-05,3.284215927124023438e-05,4.115700721740722656e-05,3.771781921386718750e-04,4.142522811889648438e-06
2.086162567138671875e-07,0.000000000000000000e+00,0.000000000000000000e+00,3.576278686523437500e-07,0.000000000000000000e+00,0.000000000000000000e+00
2.848817706108093262e-01,3.732740879058837891e-04,6.595253944396972656e-05,2.169311046600341797e-04,5.996227264404296875e-04,3.188848495483398438e-06
4.470348358154296875e-07,1.192092895507812500e-07,1.490116119384765625e-07,2.682209014892578125e-07,1.728534698486328125e-06,1.788139343261718750e-07
4.768371582031250000e-06,4.768371582031250000e-07,9.238719940185546875e-07,8.940696716308593750e-08,4.231929779052734375e-06,2.086162567138671875e-07
1.013278961181640625e-05,6.620883941650390625e-04,2.980232238769531250e-06,5.117058753967285156e-05,9.208917617797851562e-06,2.682209014892578125e-07
2.056360244750976562e-06,8.642673492431640625e-07,5.960464477539062500e-08,1.370906829833984375e-06,2.530217170715332031e-05,1.698732376098632812e-06
8.285045623779296875e-06,1.192092895507812500e-07,8.940696716308593750e-08,1.043081283569335938e-06,2.324581146240234375e-06,1.192092895507812500e-07
6.094872951507568359e-04,1.276731491088867188e-04,2.767443656921386719e-04,4.366934299468994141e-04,2.917647361755371094e-05,4.559755325317382812e-06
8.162856101989746094e-05,3.868341445922851562e-05,2.950429916381835938e-06,7.010996341705322266e-04,1.375973224639892578e-04,8.046627044677734375e-07
1.186132431030273438e-05,2.056360244750976562e-06,4.172325134277343750e-07,2.324581146240234375e-06,7.054209709167480469e-05,4.768371582031250000e-07
1.918971538543701172e-04,6.219744682312011719e-05,2.086162567138671875e-07,2.080798149108886719e-04,5.811452865600585938e-06,9.250640869140625000e-05
6.329119205474853516e-04,4.538893699645996094e-05,4.738569259643554688e-06,4.589557647705078125e-06,8.240342140197753906e-05,1.311302185058593750e-06
2.086162567138671875e-07,0.000000000000000000e+00,0.000000000000000000e+00,0.000000000000000000e+00,1.013278961181640625e-06,8.940696716308593750e-08
9.325146675109863281e-05,2.434849739074707031e-05,1.931190490722656250e-05,8.931756019592285156e-05,1.663774251937866211e-03,1.934260129928588867e-02
4.088878631591796875e-05,1.758337020874023438e-06,2.086162567138671875e-06,1.192092895507812500e-06,7.012486457824707031e-05,7.152557373046875000e-07
5.694627761840820312e-03,1.788139343261718750e-07,5.960464477539062500e-08,2.026557922363281250e-06,7.203221321105957031e-05,1.341104507446289062e-06
6.226032972335815430e-03,4.790127277374267578e-04,1.598894596099853516e-04,4.020333290100097656e-04,3.156363964080810547e-04,1.084804534912109375e-05
2.980232238769531250e-08,0.000000000000000000e+00,0.000000000000000000e+00,0.000000000000000000e+00,2.086162567138671875e-07,0.000000000000000000e+00
3.511812984943389893e-01,6.609255671501159668e-01,2.519288659095764160e-02,1.694172620773315430e-03,4.333609342575073242e-02,7.820129394531250000e-05
5.850195884704589844e-05,3.635883331298828125e-06,1.519918441772460938e-06,1.209974288940429688e-05,3.890097141265869141e-04,1.564502716064453125e-03
1.901686191558837891e-04,1.555681228637695312e-04,4.786849021911621094e-04,3.537833690643310547e-04,6.696581840515136719e-05,1.281499862670898438e-06
5.143880844116210938e-05,9.238719940185546875e-07,6.556510925292968750e-07,5.662441253662109375e-07,3.045797348022460938e-05,1.698732376098632812e-06
4.470348358154296875e-07,5.066394805908203125e-07,8.940696716308593750e-08,0.000000000000000000e+00,1.451373100280761719e-05,2.682209014892578125e-07
1.379847526550292969e-05,6.258487701416015625e-07,2.384185791015625000e-07,9.536743164062500000e-07,3.397464752197265625e-05,2.980232238769531250e-08
1.552700996398925781e-05,3.546476364135742188e-06,4.768371582031250000e-07,3.361701965332031250e-05,5.925595760345458984e-04,5.733001232147216797e-01
1.570582389831542969e-05,4.559755325317382812e-06,1.788139343261718750e-07,3.904104232788085938e-06,2.741813659667968750e-06,1.102685928344726562e-06
2.416431903839111328e-03,7.608532905578613281e-05,5.960464477539062500e-08,1.673996448516845703e-04,2.369284629821777344e-05,3.172159194946289062e-04
7.425546646118164062e-04,6.251633167266845703e-03,1.128017902374267578e-04,6.951542496681213379e-01,3.506839275360107422e-04,0.000000000000000000e+00
2.160668373107910156e-05,2.324581146240234375e-06,9.238719940185546875e-07,6.601214408874511719e-05,1.290440559387207031e-05,8.940696716308593750e-08
2.190470695495605469e-05,8.314847946166992188e-06,3.755092620849609375e-06,1.506507396697998047e-04,1.770257949829101562e-04,4.879045188426971436e-01
2.582073211669921875e-04,6.368756294250488281e-05,1.916289329528808594e-05,2.903938293457031250e-04,3.909170627593994141e-04,7.810473442077636719e-02
5.838871002197265625e-04,8.529326319694519043e-01,8.857220411300659180e-03,1.263618469238281250e-05,1.309812068939208984e-03,1.215934753417968750e-05
2.264976501464843750e-05,1.004338264465332031e-05,8.037686347961425781e-05,1.388788223266601562e-05,2.950429916381835938e-06,2.086162567138671875e-07
0.000000000000000000e+00,0.000000000000000000e+00,0.000000000000000000e+00,0.000000000000000000e+00,2.682209014892578125e-07,0.000000000000000000e+00
2.159386873245239258e-03,1.554501056671142578e-02,2.288788557052612305e-03,4.697995483875274658e-01,1.136720180511474609e-03,2.419948577880859375e-05
1.043081283569335938e-06,3.576278686523437500e-07,2.384185791015625000e-07,2.086162567138671875e-07,2.050399780273437500e-05,5.364418029785156250e-07
1.987814903259277344e-05,4.172325134277343750e-07,1.788139343261718750e-07,5.394220352172851562e-06,2.510547637939453125e-04,7.575733661651611328e-01
5.394220352172851562e-06,4.470348358154296875e-07,1.490116119384765625e-07,4.494190216064453125e-05,2.086162567138671875e-07,1.490116119384765625e-07
3.454089164733886719e-05,1.737475395202636719e-05,1.129508018493652344e-05,7.390975952148437500e-06,9.080767631530761719e-05,2.980232238769531250e-08
2.208352088928222656e-05,2.774596214294433594e-05,3.457069396972656250e-06,1.250743865966796875e-03,4.470348358154296875e-06,4.172325134277343750e-07
1.907348632812500000e-06,1.192092895507812500e-07,0.000000000000000000e+00,5.662441253662109375e-07,1.460313796997070312e-06,5.960464477539062500e-08
8.046627044677734375e-06,4.589557647705078125e-06,5.096197128295898438e-06,2.026557922363281250e-06,3.683567047119140625e-05,5.066394805908203125e-07
5.590915679931640625e-05,2.712011337280273438e-06,2.086162567138671875e-07,7.039308547973632812e-04,2.473592758178710938e-05,3.758937120437622070e-03
0.000000000000000000e+00,0.000000000000000000e+00,0.000000000000000000e+00,0.000000000000000000e+00,7.748603820800781250e-07,0.000000000000000000e+00
2.339482307434082031e-04,2.086162567138671875e-07,5.960464477539062500e-08,7.450580596923828125e-07,6.368756294250488281e-05,6.258487701416015625e-07
5.662441253662109375e-07,1.192092895507812500e-07,0.000000000000000000e+00,0.000000000000000000e+00,3.755092620849609375e-06,5.066394805908203125e-07
1.201033592224121094e-05,1.485347747802734375e-04,1.877546310424804688e-06,1.025497913360595703e-04,1.172810792922973633e-03,7.510185241699218750e-06
2.815425395965576172e-04,1.168251037597656250e-05,1.698732376098632812e-06,1.192092895507812500e-07,9.089708328247070312e-06,1.788139343261718750e-07
3.910064697265625000e-05,5.364418029785156250e-07,1.788139343261718750e-07,5.662441253662109375e-07,1.701712608337402344e-04,1.192092895507812500e-07
6.556510925292968750e-07,8.940696716308593750e-08,0.000000000000000000e+00,0.000000000000000000e+00,2.562999725341796875e-06,8.940696716308593750e-08
3.140270709991455078e-04,6.265909671783447266e-01,7.692188024520874023e-03,2.673268318176269531e-05,1.981735229492187500e-03,5.289912223815917969e-05
5.960464477539062500e-08,0.000000000000000000e+00,0.000000000000000000e+00,5.960464477539062500e-08,5.960464477539062500e-08,0.000000000000000000e+00
4.348158836364746094e-05,7.063150405883789062e-06,1.403689384460449219e-05,2.035200595855712891e-04,1.800060272216796875e-05,3.215670585632324219e-05
1.410424709320068359e-03,3.462404012680053711e-03,6.079673767089843750e-06,5.203686952590942383e-01,2.924650907516479492e-03,2.747774124145507812e-05
6.556510925292968750e-07,1.460313796997070312e-06,1.788139343261718750e-07,8.940696716308593750e-08,1.430511474609375000e-06,3.039836883544921875e-06
2.533197402954101562e-04,2.956390380859375000e-05,6.809830665588378906e-05,3.716349601745605469e-05,7.891952991485595703e-04,6.592273712158203125e-05
2.399981021881103516e-04,1.585483551025390625e-05,1.847743988037109375e-06,5.632638931274414062e-06,4.470348358154296875e-06,2.086162567138671875e-07
1.192092895507812500e-07,0.000000000000000000e+00,5.960464477539062500e-08,0.000000000000000000e+00,6.258487701416015625e-07,0.000000000000000000e+00
8.642673492431640625e-07,0.000000000000000000e+00,0.000000000000000000e+00,0.000000000000000000e+00,2.384185791015625000e-07,1.192092895507812500e-07
1.372933387756347656e-03,4.206277728080749512e-01,6.695419549942016602e-03,4.237294197082519531e-04,2.497732639312744141e-04,7.808208465576171875e-06
1.949071884155273438e-05,1.281499862670898438e-06,5.066394805908203125e-07,1.788139343261718750e-07,5.170702934265136719e-05,1.788139343261718750e-07
1.609325408935546875e-06,3.874301910400390625e-07,0.000000000000000000e+00,3.898143768310546875e-05,2.950429916381835938e-06,0.000000000000000000e+00
1.204609870910644531e-04,1.990795135498046875e-05,8.940696716308593750e-08,6.735324859619140625e-06,5.900859832763671875e-06,1.013278961181640625e-06
1.255095005035400391e-03,6.586313247680664062e-06,3.159046173095703125e-06,4.887580871582031250e-06,3.887671232223510742e-02,1.579523086547851562e-06
1.840186119079589844e-02,4.106760025024414062e-05,2.112984657287597656e-05,5.943179130554199219e-04,4.324018955230712891e-04,2.443790435791015625e-06
3.826022148132324219e-04,7.248301506042480469e-01,3.219157457351684570e-03,3.308057785034179688e-06,1.647889614105224609e-03,1.099222898483276367e-02
1.242756843566894531e-05,2.980232238769531250e-08,0.000000000000000000e+00,5.662441253662109375e-07,6.020069122314453125e-06,2.384185791015625000e-07
3.180563449859619141e-03,4.229247570037841797e-04,1.254677772521972656e-05,8.707642555236816406e-04,1.265972852706909180e-03,9.102940559387207031e-03
5.066394805908203125e-07,1.788139343261718750e-07,1.192092895507812500e-07,1.579523086547851562e-06,1.847743988037109375e-06,8.940696716308593750e-08
5.096197128295898438e-05,3.814101219177246094e-04,1.031160354614257812e-05,6.196779012680053711e-02,1.372694969177246094e-04,5.960464477539062500e-07
2.229213714599609375e-05,8.187031745910644531e-02,6.060361862182617188e-03,1.579523086547851562e-06,8.714199066162109375e-05,3.513693809509277344e-05
5.364418029785156250e-07,1.788139343261718750e-07,0.000000000000000000e+00,7.152557373046875000e-07,9.238719940185546875e-07,0.000000000000000000e+00
4.497766494750976562e-04,1.534819602966308594e-05,1.025199890136718750e-05,1.692771911621093750e-05,1.269578933715820312e-05,4.768371582031250000e-07
6.407499313354492188e-06,1.192092895507812500e-07,0.000000000000000000e+00,1.519918441772460938e-06,2.066195011138916016e-04,7.770256400108337402e-01
4.714131355285644531e-04,5.573034286499023438e-05,1.680850982666015625e-04,2.160668373107910156e-05,2.886950969696044922e-04,2.831220626831054688e-06
3.464579582214355469e-02,4.966944456100463867e-03,1.290738582611083984e-04,4.674214124679565430e-02,1.035034656524658203e-03,6.765127182006835938e-06
2.562999725341796875e-06,1.788139343261718750e-07,0.000000000000000000e+00,4.172325134277343750e-07,7.688999176025390625e-06,1.400709152221679688e-06
4.482269287109375000e-05,1.072883605957031250e-06,8.940696716308593750e-08,3.784894943237304688e-06,7.358193397521972656e-05,8.940696716308593750e-08
2.877712249755859375e-04,5.203485488891601562e-05,7.656216621398925781e-05,9.647011756896972656e-05,1.063346862792968750e-04,4.947185516357421875e-06
1.007318496704101562e-05,4.172325134277343750e-07,2.980232238769531250e-08,1.636147499084472656e-05,2.849698066711425781e-04,4.932284355163574219e-05
2.533197402954101562e-06,1.788139343261718750e-07,0.000000000000000000e+00,1.162290573120117188e-06,1.525878906250000000e-05,1.192092895507812500e-06
1.564621925354003906e-05,1.147389411926269531e-05,2.115964889526367188e-06,6.854534149169921875e-07,1.564621925354003906e-05,5.662441253662109375e-07
1.385083794593811035e-02,8.761882781982421875e-06,3.993511199951171875e-06,1.487135887145996094e-05,8.781254291534423828e-04,2.324581146240234375e-06
1.013278961181640625e-06,1.788139343261718750e-07,0.000000000000000000e+00,5.960464477539062500e-08,4.470348358154296875e-07,1.192092895507812500e-07
8.583068847656250000e-05,3.248453140258789062e-06,4.172325134277343750e-07,7.688999176025390625e-05,3.529191017150878906e-04,1.788139343261718750e-07
1.545965671539306641e-03,3.987550735473632812e-05,3.281235694885253906e-05,1.613795757293701172e-04,4.185944795608520508e-03,1.569092273712158203e-04
1.239776611328125000e-05,1.019239425659179688e-05,7.748603820800781250e-07,5.066394805908203125e-07,3.501772880554199219e-05,1.764297485351562500e-05
1.468151807785034180e-03,1.847743988037109375e-05,1.668930053710937500e-05,7.942318916320800781e-05,2.860128879547119141e-04,3.248453140258789062e-06
5.264580249786376953e-04,5.784630775451660156e-05,1.180171966552734375e-05,2.014636993408203125e-05,1.057982444763183594e-04,1.937150955200195312e-05
2.336502075195312500e-05,3.993511199951171875e-06,2.384185791015625000e-07,1.013278961181640625e-06,5.960464477539062500e-06,1.740455627441406250e-05
3.567039966583251953e-04,4.646182060241699219e-05,1.281499862670898438e-06,5.781650543212890625e-06,5.919337272644042969e-04,1.728534698486328125e-06
6.317108869552612305e-03,4.693567752838134766e-04,6.943941116333007812e-06,2.482950687408447266e-03,1.226931810379028320e-03,3.771781921386718750e-04
4.410743713378906250e-06,5.125999450683593750e-06,6.228685379028320312e-06,6.556510925292968750e-07,2.664327621459960938e-05,1.490116119384765625e-07
1.224577426910400391e-04,1.069903373718261719e-05,9.066392779350280762e-01,2.384185791015625000e-07,2.978742122650146484e-04,8.583068847656250000e-06
3.576278686523437500e-07,3.576278686523437500e-06,4.470348358154296875e-07,2.086162567138671875e-06,2.682209014892578125e-07,0.000000000000000000e+00
5.492568016052246094e-05,2.920627593994140625e-06,3.874301910400390625e-07,1.230835914611816406e-05,8.482635021209716797e-04,6.998583078384399414e-01
1.087579429149627686e-01,5.416405797004699707e-01,9.005635976791381836e-03,3.457963466644287109e-04,1.168996095657348633e-01,1.432299613952636719e-04
2.086162567138671875e-07,2.980232238769531250e-07,4.470348358154296875e-07,1.192092895507812500e-07,6.258487701416015625e-07,2.980232238769531250e-07
4.470348358154296875e-07,8.940696716308593750e-08,2.980232238769531250e-08,1.490116119384765625e-07,2.831220626831054688e-06,0.000000000000000000e+00
2.294778823852539062e-06,2.086162567138671875e-07,1.788139343261718750e-07,5.960464477539062500e-08,4.589557647705078125e-06,3.278255462646484375e-07
8.541941642761230469e-04,4.535913467407226562e-05,3.305673599243164062e-04,4.084706306457519531e-04,3.921985626220703125e-05,5.066394805908203125e-07
2.133548259735107422e-04,1.084804534912109375e-05,9.387731552124023438e-06,1.058280467987060547e-04,1.686811447143554688e-04,1.311302185058593750e-06
7.814168930053710938e-05,6.258487701416015625e-07,5.960464477539062500e-08,3.576278686523437500e-07,1.686811447143554688e-05,5.960464477539062500e-08
5.193948745727539062e-03,2.330541610717773438e-05,1.773238182067871094e-05,1.683831214904785156e-05,7.117092609405517578e-04,3.188848495483398438e-06
1.862645149230957031e-05,3.278255462646484375e-07,1.192092895507812500e-07,7.748603820800781250e-07,2.479553222656250000e-05,8.642673492431640625e-07
1.788139343261718750e-07,5.960464477539062500e-08,0.000000000000000000e+00,0.000000000000000000e+00,7.152557373046875000e-07,5.960464477539062500e-08
